# y_maternal, y_maternal_fetal, y_fetal_true, y_maternal_clean, y_maternal_fetal_clean
3.580630256891252639e-02,-1.144931411133533867e-04,0.000000000000000000e+00,0.000000000000000000e+00,0.000000000000000000e+00
1.024807023182177090e-01,1.708075899143992812e-02,0.000000000000000000e+00,0.000000000000000000e+00,0.000000000000000000e+00
3.610878554421534381e-03,4.487861228560688365e-02,0.000000000000000000e+00,0.000000000000000000e+00,0.000000000000000000e+00
-1.138978068129052786e-02,-1.805500571279054084e-02,0.000000000000000000e+00,0.000000000000000000e+00,0.000000000000000000e+00
8.915451286337758297e-02,8.282226896590602627e-02,0.000000000000000000e+00,0.000000000000000000e+00,0.000000000000000000e+00
1.631742646551487264e-02,-5.945046019897962802e-02,0.000000000000000000e+00,0.000000000000000000e+00,0.000000000000000000e+00
2.191872750117467364e-02,8.332142644614876081e-02,0.000000000000000000e+00,0.000000000000000000e+00,0.000000000000000000e+00
-4.764419592943264573e-03,-1.001719628742767931e-01,0.000000000000000000e+00,0.000000000000000000e+00,0.000000000000000000e+00
-5.440836741705960648e-03,-2.389363572867354152e-02,0.000000000000000000e+00,0.000000000000000000e+00,0.000000000000000000e+00
6.576913998627133273e-02,1.009098753964793177e-01,3.246994692046833997e-02,0.000000000000000000e+00,3.246994692046833997e-02
3.468367925019088388e-02,1.357509681807793078e-01,1.228425425379335301e-01,0.000000000000000000e+00,1.228425425379335301e-01
-1.721620343078340571e-03,2.862675384759338915e-01,2.511499434787585749e-01,0.000000000000000000e+00,2.511499434787585749e-01
6.004394703744791312e-02,4.321791985906051625e-01,3.877601063757321609e-01,0.000000000000000000e+00,3.877601063757321609e-01
-2.252034024146341590e-03,5.344032368481842488e-01,4.982922465033349235e-01,0.000000000000000000e+00,4.982922465033349235e-01
-2.192298974797485950e-02,4.803588593131951079e-01,5.494639959930345263e-01,0.000000000000000000e+00,5.494639959930345263e-01
-7.547793033248495487e-02,4.653340056476003572e-01,5.150067374711921886e-01,0.000000000000000000e+00,5.150067374711921886e-01
1.282322504147080221e-03,3.722846199188056815e-01,3.807579144296589502e-01,0.000000000000000000e+00,3.807579144296589502e-01
-1.780131544481043659e-02,1.625341234345626384e-01,1.481351312526606456e-01,0.000000000000000000e+00,1.481351312526606456e-01
-7.968509237918336430e-02,-1.497416715733433934e-01,-1.645945902807337824e-01,0.000000000000000000e+00,-1.645945902807337824e-01
-3.598497017740193843e-02,-4.377315023451028297e-01,-4.283526537333661732e-01,0.000000000000000000e+00,-4.283526537333661732e-01
-4.241905762423629073e-02,-6.069838555964077731e-01,-5.885791285385050253e-01,0.000000000000000000e+00,-5.885791285385050253e-01
3.184701452468451880e-03,-5.685023582664192610e-01,-6.410413286585400217e-01,0.000000000000000000e+00,-6.410413286585400217e-01
7.158995570400278341e-02,-5.869912474427796401e-01,-5.979506958040018416e-01,0.000000000000000000e+00,-5.979506958040018416e-01
-3.013513181308541400e-02,-4.624440097363591851e-01,-4.847001329696652427e-01,0.000000000000000000e+00,-4.847001329696652427e-01
-3.406022904676713620e-02,-3.453968637121098140e-01,-3.348665913050115073e-01,0.000000000000000000e+00,-3.348665913050115073e-01
-3.506007638355573917e-03,-2.096089845335575297e-01,-1.842638138069006837e-01,0.000000000000000000e+00,-1.842638138069006837e-01
-4.659198641292051218e-02,-4.493678319466008764e-02,-6.493989384093673545e-02,0.000000000000000000e+00,-6.493989384093673545e-02
-5.559200792196536921e-03,5.087563384205881500e-02,-2.449293598294705921e-17,0.000000000000000000e+00,-2.449293598294705921e-17
4.415979816171095550e-03,6.054779833561896307e-02,0.000000000000000000e+00,0.000000000000000000e+00,0.000000000000000000e+00
9.539853282681798330e-02,2.265951644805084056e-02,0.000000000000000000e+00,0.000000000000000000e+00,0.000000000000000000e+00
-7.120636806415583248e-03,-6.777930208533598788e-02,0.000000000000000000e+00,0.000000000000000000e+00,0.000000000000000000e+00
-1.539651797026730246e-02,3.976129164563817903e-02,0.000000000000000000e+00,0.000000000000000000e+00,0.000000000000000000e+00
1.502062743717385088e-02,-7.855970806829783160e-02,0.000000000000000000e+00,0.000000000000000000e+00,0.000000000000000000e+00
-9.332632623539703631e-02,-5.798933883344567497e-02,0.000000000000000000e+00,0.000000000000000000e+00,0.000000000000000000e+00
2.034133214693798625e-02,-3.213193879973522821e-02,0.000000000000000000e+00,0.000000000000000000e+00,0.000000000000000000e+00
8.915892394465415108e-03,-4.015957685729375226e-02,0.000000000000000000e+00,0.000000000000000000e+00,0.000000000000000000e+00
-9.003991162622868027e-02,4.492945856402372901e-02,0.000000000000000000e+00,0.000000000000000000e+00,0.000000000000000000e+00
-1.526682488698805941e-03,2.227386819999244150e-02,0.000000000000000000e+00,0.000000000000000000e+00,0.000000000000000000e+00
1.861607288505543606e-02,3.142138164109267023e-02,0.000000000000000000e+00,0.000000000000000000e+00,0.000000000000000000e+00
-5.343275420137707371e-03,-3.444508246866696821e-02,0.000000000000000000e+00,0.000000000000000000e+00,0.000000000000000000e+00
-8.719134777038632655e-02,7.494940711020025258e-03,0.000000000000000000e+00,0.000000000000000000e+00,0.000000000000000000e+00
3.170297150148036758e-02,6.321332264069712270e-02,0.000000000000000000e+00,0.000000000000000000e+00,0.000000000000000000e+00
1.349439086582768232e-02,-6.072094839335119565e-02,0.000000000000000000e+00,0.000000000000000000e+00,0.000000000000000000e+00
2.784508216892740695e-02,-2.609057203510875556e-02,0.000000000000000000e+00,0.000000000000000000e+00,0.000000000000000000e+00
-3.175654807024963500e-02,-2.837807747367443109e-02,0.000000000000000000e+00,0.000000000000000000e+00,0.000000000000000000e+00
3.698864492812108107e-02,-5.023451047063590136e-02,0.000000000000000000e+00,0.000000000000000000e+00,0.000000000000000000e+00
1.191130782511369904e-02,9.856910446443276422e-03,0.000000000000000000e+00,0.000000000000000000e+00,0.000000000000000000e+00
-4.208104703029231369e-02,3.633780285100531721e-02,0.000000000000000000e+00,0.000000000000000000e+00,0.000000000000000000e+00
-1.046143386714597657e-03,1.378173729109310498e-02,0.000000000000000000e+00,0.000000000000000000e+00,0.000000000000000000e+00
-8.026096605020939523e-02,7.089911886026862078e-03,0.000000000000000000e+00,0.000000000000000000e+00,0.000000000000000000e+00
5.802264811770392605e-02,7.762875136151474453e-02,0.000000000000000000e+00,0.000000000000000000e+00,0.000000000000000000e+00
1.128511612859177914e-02,-3.640216714593807329e-02,0.000000000000000000e+00,0.000000000000000000e+00,0.000000000000000000e+00
-5.130898844329639941e-02,-4.366985174209740694e-03,0.000000000000000000e+00,0.000000000000000000e+00,0.000000000000000000e+00
4.272672001355463413e-03,6.492093063606844960e-02,0.000000000000000000e+00,0.000000000000000000e+00,0.000000000000000000e+00
-6.621571829713653046e-02,3.393139238699256766e-02,0.000000000000000000e+00,0.000000000000000000e+00,0.000000000000000000e+00
8.469971536713359270e-03,-7.902969734181264361e-02,0.000000000000000000e+00,0.000000000000000000e+00,0.000000000000000000e+00
-3.090461223937383817e-02,1.213484135319674584e-01,0.000000000000000000e+00,0.000000000000000000e+00,0.000000000000000000e+00
8.856819250770688046e-02,4.944687356278743701e-02,0.000000000000000000e+00,0.000000000000000000e+00,0.000000000000000000e+00
-9.111883458587918816e-03,3.680702322263425946e-02,0.000000000000000000e+00,0.000000000000000000e+00,0.000000000000000000e+00
-2.347240423231668205e-02,-4.107852768361347495e-02,0.000000000000000000e+00,0.000000000000000000e+00,0.000000000000000000e+00
-6.248483000490976519e-02,-3.414479188698880952e-02,0.000000000000000000e+00,0.000000000000000000e+00,0.000000000000000000e+00
1.654048312233762433e-02,6.197282730300351927e-02,0.000000000000000000e+00,0.000000000000000000e+00,0.000000000000000000e+00
3.996647392211308270e-02,1.500394736599509199e-02,0.000000000000000000e+00,0.000000000000000000e+00,0.000000000000000000e+00
4.145478519390295019e-02,2.970465416243287492e-03,0.000000000000000000e+00,0.000000000000000000e+00,0.000000000000000000e+00
2.384717292187084337e-02,4.332015253113628145e-02,0.000000000000000000e+00,0.000000000000000000e+00,0.000000000000000000e+00
-6.926045451548794307e-02,-7.267307682537070546e-02,0.000000000000000000e+00,0.000000000000000000e+00,0.000000000000000000e+00
5.097008913910029346e-03,2.633198290575358702e-02,0.000000000000000000e+00,0.000000000000000000e+00,0.000000000000000000e+00
5.757775526745815067e-03,-1.125976086589746544e-02,0.000000000000000000e+00,0.000000000000000000e+00,0.000000000000000000e+00
-1.630593779299875645e-02,5.653826598796235503e-02,0.000000000000000000e+00,0.000000000000000000e+00,0.000000000000000000e+00
5.932582196100244509e-02,-5.514200621256997586e-03,0.000000000000000000e+00,0.000000000000000000e+00,0.000000000000000000e+00
8.472152641632986481e-02,-2.883358557902459748e-02,0.000000000000000000e+00,0.000000000000000000e+00,0.000000000000000000e+00
3.480107581994652116e-02,-4.241455356970975921e-02,0.000000000000000000e+00,0.000000000000000000e+00,0.000000000000000000e+00
-8.825134934509151763e-02,2.906181718284223114e-02,0.000000000000000000e+00,0.000000000000000000e+00,0.000000000000000000e+00
4.247373658786625372e-02,-8.290124022629839773e-02,0.000000000000000000e+00,0.000000000000000000e+00,0.000000000000000000e+00
7.509525287744775457e-02,8.196480640225503600e-02,0.000000000000000000e+00,0.000000000000000000e+00,0.000000000000000000e+00
-1.742677657546949643e-02,-2.893001350707251514e-03,0.000000000000000000e+00,0.000000000000000000e+00,0.000000000000000000e+00
2.640514859639912781e-02,2.030427857958850418e-02,0.000000000000000000e+00,0.000000000000000000e+00,0.000000000000000000e+00
6.341115328924346040e-02,-8.868202705084256288e-02,0.000000000000000000e+00,0.000000000000000000e+00,0.000000000000000000e+00
-1.195374259883653922e-01,-4.550490655111669169e-02,0.000000000000000000e+00,0.000000000000000000e+00,0.000000000000000000e+00
-7.289769878429465388e-02,1.629204465763102461e-01,0.000000000000000000e+00,0.000000000000000000e+00,0.000000000000000000e+00
-5.306745671462444192e-02,6.336342664940227028e-03,0.000000000000000000e+00,0.000000000000000000e+00,0.000000000000000000e+00
4.852940962472643283e-02,2.611914459466075505e-02,0.000000000000000000e+00,0.000000000000000000e+00,0.000000000000000000e+00
-4.230980985957034229e-02,-7.505921092908884873e-02,0.000000000000000000e+00,0.000000000000000000e+00,0.000000000000000000e+00
1.792920515700522494e-02,-1.003002186764693493e-01,0.000000000000000000e+00,0.000000000000000000e+00,0.000000000000000000e+00
-1.780213745694217073e-02,-4.122777743137231304e-02,0.000000000000000000e+00,0.000000000000000000e+00,0.000000000000000000e+00
5.393774328697201886e-02,5.007101390656006068e-02,0.000000000000000000e+00,0.000000000000000000e+00,0.000000000000000000e+00
-3.937551550428518982e-02,5.131143561849861590e-02,0.000000000000000000e+00,0.000000000000000000e+00,0.000000000000000000e+00
-2.653303197688624063e-02,-4.764162764883581036e-02,0.000000000000000000e+00,0.000000000000000000e+00,0.000000000000000000e+00
-1.764212254239451438e-02,-2.895501391056468088e-02,0.000000000000000000e+00,0.000000000000000000e+00,0.000000000000000000e+00
-1.674967871766191996e-02,2.772675084358221308e-04,0.000000000000000000e+00,0.000000000000000000e+00,0.000000000000000000e+00
6.643154302743553563e-02,-1.175122930682177130e-01,0.000000000000000000e+00,0.000000000000000000e+00,0.000000000000000000e+00
4.888239552097967990e-03,9.665603865294747354e-03,0.000000000000000000e+00,0.000000000000000000e+00,0.000000000000000000e+00
-7.667221182909511601e-02,4.182101467704451431e-02,0.000000000000000000e+00,0.000000000000000000e+00,0.000000000000000000e+00
-2.362088722579749889e-02,4.775072762050051878e-02,0.000000000000000000e+00,0.000000000000000000e+00,0.000000000000000000e+00
5.493596892778901397e-02,8.797966684559333644e-03,0.000000000000000000e+00,0.000000000000000000e+00,0.000000000000000000e+00
1.213623937061157898e-01,-2.431841990881587409e-02,0.000000000000000000e+00,0.000000000000000000e+00,0.000000000000000000e+00
7.984866438971963132e-02,9.335550533040882018e-03,0.000000000000000000e+00,0.000000000000000000e+00,0.000000000000000000e+00
-6.501712973088620562e-02,-2.021213934410287863e-02,0.000000000000000000e+00,0.000000000000000000e+00,0.000000000000000000e+00
-2.226204480675235062e-02,-6.116832910646333860e-02,0.000000000000000000e+00,0.000000000000000000e+00,0.000000000000000000e+00
3.954660735290706219e-02,-2.609478601997004127e-02,0.000000000000000000e+00,0.000000000000000000e+00,0.000000000000000000e+00
-4.563850290040902952e-02,-2.027500119689079269e-02,0.000000000000000000e+00,0.000000000000000000e+00,0.000000000000000000e+00
1.622187204722423670e-02,1.207772809740248476e-01,0.000000000000000000e+00,0.000000000000000000e+00,0.000000000000000000e+00
-1.242356649557477960e-02,-3.454068214466492898e-02,0.000000000000000000e+00,0.000000000000000000e+00,0.000000000000000000e+00
-1.346107444331847425e-01,2.216984210984679078e-04,0.000000000000000000e+00,0.000000000000000000e+00,0.000000000000000000e+00
2.364526373222925262e-02,-1.203592456308748108e-02,0.000000000000000000e+00,0.000000000000000000e+00,0.000000000000000000e+00
6.923614821563127408e-02,-4.579960315730685627e-02,0.000000000000000000e+00,0.000000000000000000e+00,0.000000000000000000e+00
2.779071539599622595e-02,1.740925370174478681e-02,0.000000000000000000e+00,0.000000000000000000e+00,0.000000000000000000e+00
-3.060957719727648574e-02,-6.915672601076836012e-02,0.000000000000000000e+00,0.000000000000000000e+00,0.000000000000000000e+00
-2.559393767030808398e-02,-3.047280654219051976e-02,0.000000000000000000e+00,0.000000000000000000e+00,0.000000000000000000e+00
7.383718356271734562e-02,3.090239963650506447e-03,0.000000000000000000e+00,0.000000000000000000e+00,0.000000000000000000e+00
-1.740054301918238927e-02,1.621840529979465609e-02,0.000000000000000000e+00,0.000000000000000000e+00,0.000000000000000000e+00
4.552393923394431469e-02,5.333623921074494290e-02,0.000000000000000000e+00,0.000000000000000000e+00,0.000000000000000000e+00
2.767076668331837699e-02,4.518043506185789177e-02,0.000000000000000000e+00,0.000000000000000000e+00,0.000000000000000000e+00
-2.981394589566621275e-02,-9.102837143067675496e-02,0.000000000000000000e+00,0.000000000000000000e+00,0.000000000000000000e+00
5.680924235894885266e-02,9.453984298698657474e-02,0.000000000000000000e+00,0.000000000000000000e+00,0.000000000000000000e+00
-1.489704663209776882e-02,-1.806882791975390409e-02,0.000000000000000000e+00,0.000000000000000000e+00,0.000000000000000000e+00
3.220511849068564969e-02,2.393682630542891543e-01,0.000000000000000000e+00,0.000000000000000000e+00,0.000000000000000000e+00
6.800249993559238926e-02,9.024070653321025759e-02,0.000000000000000000e+00,0.000000000000000000e+00,0.000000000000000000e+00
1.868508171003643858e-02,-3.783678131823128149e-02,0.000000000000000000e+00,0.000000000000000000e+00,0.000000000000000000e+00
-1.500206090201739589e-02,-9.306606359436213685e-03,0.000000000000000000e+00,0.000000000000000000e+00,0.000000000000000000e+00
-3.690106575273592593e-02,2.202609338196349562e-02,0.000000000000000000e+00,0.000000000000000000e+00,0.000000000000000000e+00
7.396880730940344484e-02,1.097012646465699848e-01,0.000000000000000000e+00,0.000000000000000000e+00,0.000000000000000000e+00
-8.590656072350925931e-02,3.112020134623290704e-02,0.000000000000000000e+00,0.000000000000000000e+00,0.000000000000000000e+00
-4.631388417595597162e-02,-2.480196932521921971e-02,0.000000000000000000e+00,0.000000000000000000e+00,0.000000000000000000e+00
2.106979831378141821e-02,7.717141988584559978e-03,0.000000000000000000e+00,0.000000000000000000e+00,0.000000000000000000e+00
2.620898196362045351e-02,-5.217958638810912993e-03,0.000000000000000000e+00,0.000000000000000000e+00,0.000000000000000000e+00
4.846625515198766526e-02,-1.036160156405806221e-03,0.000000000000000000e+00,0.000000000000000000e+00,0.000000000000000000e+00
2.335164899503492167e-02,3.473987495979777990e-02,0.000000000000000000e+00,0.000000000000000000e+00,0.000000000000000000e+00
-8.317339540999571512e-02,5.008196361066033497e-02,0.000000000000000000e+00,0.000000000000000000e+00,0.000000000000000000e+00
2.608883470286113213e-02,2.971137664309091153e-02,0.000000000000000000e+00,0.000000000000000000e+00,0.000000000000000000e+00
4.202478449488650236e-02,-5.805817702671631914e-02,0.000000000000000000e+00,0.000000000000000000e+00,0.000000000000000000e+00
3.027413476075956067e-02,-4.266759581077297220e-02,0.000000000000000000e+00,0.000000000000000000e+00,0.000000000000000000e+00
1.119956800016202320e-02,-8.485954817421204055e-03,0.000000000000000000e+00,0.000000000000000000e+00,0.000000000000000000e+00
-9.386207454854869625e-03,3.478122347659917939e-03,0.000000000000000000e+00,0.000000000000000000e+00,0.000000000000000000e+00
-5.690102721328807456e-02,5.377825092276744545e-04,3.246994692046833997e-02,0.000000000000000000e+00,3.246994692046833997e-02
-8.660365465184641232e-02,1.614275499263116698e-01,1.228425425379335301e-01,0.000000000000000000e+00,1.228425425379335301e-01
-6.756862944712375973e-02,2.201158064613984167e-01,2.511499434787585749e-01,0.000000000000000000e+00,2.511499434787585749e-01
1.327162086109387809e-02,3.567808816702900399e-01,3.877601063757321609e-01,0.000000000000000000e+00,3.877601063757321609e-01
2.303852774706339340e-02,4.537378229082724146e-01,4.982922465033349235e-01,0.000000000000000000e+00,4.982922465033349235e-01
-4.002085452259177001e-02,5.579677882401612443e-01,5.494639959930345263e-01,0.000000000000000000e+00,5.494639959930345263e-01
9.203525871031816019e-02,4.692405543134524626e-01,5.150067374711921886e-01,0.000000000000000000e+00,5.150067374711921886e-01
4.278884565555279851e-02,4.079065449303069801e-01,3.807579144296589502e-01,0.000000000000000000e+00,3.807579144296589502e-01
1.670359862090371739e-02,1.550583912088826788e-01,1.481351312526606456e-01,0.000000000000000000e+00,1.481351312526606456e-01
-1.780451565384360765e-02,-1.391290144221278835e-01,-1.645945902807337824e-01,0.000000000000000000e+00,-1.645945902807337824e-01
-2.432606773465284880e-02,-4.365293729798358502e-01,-4.283526537333661732e-01,0.000000000000000000e+00,-4.283526537333661732e-01
-3.265897216900819772e-02,-6.091285711119311941e-01,-5.885791285385050253e-01,0.000000000000000000e+00,-5.885791285385050253e-01
-1.053159179609253759e-01,-6.809323539855182128e-01,-6.410413286585400217e-01,0.000000000000000000e+00,-6.410413286585400217e-01
3.293629184273930838e-02,-5.788110278192144520e-01,-5.979506958040018416e-01,0.000000000000000000e+00,-5.979506958040018416e-01
3.494699178087926766e-03,-4.328253736997211831e-01,-4.847001329696652427e-01,0.000000000000000000e+00,-4.847001329696652427e-01
-2.936050362436490486e-03,-2.579852143044180646e-01,-3.348665913050115073e-01,0.000000000000000000e+00,-3.348665913050115073e-01
1.314782334042728131e-02,-1.843155799925565441e-01,-1.842638138069006837e-01,0.000000000000000000e+00,-1.842638138069006837e-01
1.062499117652048880e-01,-1.274512698590832827e-01,-6.493989384093673545e-02,0.000000000000000000e+00,-6.493989384093673545e-02
3.786817974430822104e-02,-5.161659006995539950e-02,-2.449293598294705921e-17,0.000000000000000000e+00,-2.449293598294705921e-17
4.904194325595048753e-02,3.743036998740754961e-02,0.000000000000000000e+00,0.000000000000000000e+00,0.000000000000000000e+00
5.321659907285710388e-03,9.919483930259070936e-03,0.000000000000000000e+00,0.000000000000000000e+00,0.000000000000000000e+00
-5.330536151950247131e-02,-5.257990062763422817e-02,0.000000000000000000e+00,0.000000000000000000e+00,0.000000000000000000e+00
-8.235980540572357400e-02,3.485642729873248552e-02,0.000000000000000000e+00,0.000000000000000000e+00,0.000000000000000000e+00
3.771951989027123170e-02,1.140114726735554501e-01,0.000000000000000000e+00,0.000000000000000000e+00,0.000000000000000000e+00
-3.186316475452677030e-03,-7.824055918154571021e-02,0.000000000000000000e+00,0.000000000000000000e+00,0.000000000000000000e+00
-8.033106000380434153e-02,2.196497883084581187e-02,0.000000000000000000e+00,0.000000000000000000e+00,0.000000000000000000e+00
-2.460836831476452893e-02,-1.032586107980570933e-02,0.000000000000000000e+00,0.000000000000000000e+00,0.000000000000000000e+00
-4.129055127892952010e-02,-1.712378604056864415e-02,0.000000000000000000e+00,0.000000000000000000e+00,0.000000000000000000e+00
-3.696516422466775836e-02,-4.664554777625042753e-02,0.000000000000000000e+00,0.000000000000000000e+00,0.000000000000000000e+00
-4.279139585167481691e-02,-1.558203979721102250e-01,0.000000000000000000e+00,0.000000000000000000e+00,0.000000000000000000e+00
2.455749254636528656e-02,-8.072235530537603954e-02,0.000000000000000000e+00,0.000000000000000000e+00,0.000000000000000000e+00
9.530727657073249925e-02,-6.998055888969859084e-03,0.000000000000000000e+00,0.000000000000000000e+00,0.000000000000000000e+00
-2.160297710073344566e-03,-6.706908745134064487e-02,0.000000000000000000e+00,0.000000000000000000e+00,0.000000000000000000e+00
-2.490284149266054625e-02,-6.878604443213769126e-02,0.000000000000000000e+00,0.000000000000000000e+00,0.000000000000000000e+00
-1.346172766344596976e-02,1.237941395107398090e-01,0.000000000000000000e+00,0.000000000000000000e+00,0.000000000000000000e+00
1.154507191158865402e-02,-5.444766383522651326e-02,0.000000000000000000e+00,0.000000000000000000e+00,0.000000000000000000e+00
-1.681787675514252040e-02,9.687655956408766644e-02,0.000000000000000000e+00,0.000000000000000000e+00,0.000000000000000000e+00
-6.732270537519513542e-02,-5.439237515995935107e-02,0.000000000000000000e+00,0.000000000000000000e+00,0.000000000000000000e+00
-4.192087377980674434e-02,-3.881548374788895694e-02,0.000000000000000000e+00,0.000000000000000000e+00,0.000000000000000000e+00
-4.793349664959671574e-02,-1.048470659257678744e-03,0.000000000000000000e+00,0.000000000000000000e+00,0.000000000000000000e+00
1.807242619769333300e-02,5.897523267541650294e-02,0.000000000000000000e+00,0.000000000000000000e+00,0.000000000000000000e+00
-1.366573538619293184e-02,3.002030566016721316e-02,0.000000000000000000e+00,0.000000000000000000e+00,0.000000000000000000e+00
-9.493349947834378577e-02,-9.557034378587188350e-03,0.000000000000000000e+00,0.000000000000000000e+00,0.000000000000000000e+00
-9.925503649466324921e-03,3.342539876532908683e-02,0.000000000000000000e+00,0.000000000000000000e+00,0.000000000000000000e+00
-4.293594837743973380e-02,8.728105090364676744e-02,0.000000000000000000e+00,0.000000000000000000e+00,0.000000000000000000e+00
-2.132567382544184320e-02,1.300857605609256201e-02,0.000000000000000000e+00,0.000000000000000000e+00,0.000000000000000000e+00
1.024981270266110828e-01,2.405789296517822293e-02,0.000000000000000000e+00,0.000000000000000000e+00,0.000000000000000000e+00
-5.807801722850176873e-03,-8.081801712597347365e-02,0.000000000000000000e+00,0.000000000000000000e+00,0.000000000000000000e+00
7.906188180547475686e-02,-4.126774096851370394e-02,0.000000000000000000e+00,0.000000000000000000e+00,0.000000000000000000e+00
-4.687164457986747051e-02,2.795641345713446857e-02,0.000000000000000000e+00,0.000000000000000000e+00,0.000000000000000000e+00
-3.887091126508151334e-02,8.664660813613110635e-02,0.000000000000000000e+00,0.000000000000000000e+00,0.000000000000000000e+00
-3.802543571554829749e-02,-9.241933299823122672e-02,0.000000000000000000e+00,0.000000000000000000e+00,0.000000000000000000e+00
-1.054776610689067001e-02,1.237694811195930340e-02,0.000000000000000000e+00,0.000000000000000000e+00,0.000000000000000000e+00
1.951986891127725776e-02,3.228885499298791290e-02,0.000000000000000000e+00,0.000000000000000000e+00,0.000000000000000000e+00
-9.997217145976294069e-04,5.614878168678303499e-02,0.000000000000000000e+00,0.000000000000000000e+00,0.000000000000000000e+00
-4.239862519367611216e-02,-7.430774177433355221e-02,0.000000000000000000e+00,0.000000000000000000e+00,0.000000000000000000e+00
-4.243835876237023186e-02,-4.878847562286461881e-02,0.000000000000000000e+00,0.000000000000000000e+00,0.000000000000000000e+00
1.066426667491007438e-03,2.625290443297557952e-02,0.000000000000000000e+00,0.000000000000000000e+00,0.000000000000000000e+00
2.950698908584857907e-02,-6.104942325519734786e-02,0.000000000000000000e+00,0.000000000000000000e+00,0.000000000000000000e+00
3.109718662169159153e-01,-3.007662005649242715e-03,0.000000000000000000e+00,3.869467923798433628e-01,0.000000000000000000e+00
7.010554178377512713e-01,-3.162727500457349333e-03,0.000000000000000000e+00,6.802203445276286953e-01,0.000000000000000000e+00
8.473601762038261986e-01,2.333299838591471748e-02,0.000000000000000000e+00,8.823440057525097080e-01,0.000000000000000000e+00
9.966078415607696472e-01,-1.983192350094202874e-02,0.000000000000000000e+00,1.000109048738484496e+00,0.000000000000000000e+00
1.016335413828669765e+00,2.850783413527313223e-02,0.000000000000000000e+00,1.043410054249864327e+00,0.000000000000000000e+00
1.001715710173408880e+00,4.144834060613652137e-03,0.000000000000000000e+00,1.024139943148816734e+00,0.000000000000000000e+00
9.591080084829632924e-01,5.095763280014134478e-02,0.000000000000000000e+00,9.551908727828193335e-01,0.000000000000000000e+00
8.669391176999237114e-01,1.314602759590874793e-03,0.000000000000000000e+00,8.495929198249059233e-01,0.000000000000000000e+00
7.401211111719269153e-01,-3.911941641991234508e-02,0.000000000000000000e+00,7.198092301220747613e-01,0.000000000000000000e+00
5.041047640840918831e-01,1.692261970441008220e-02,0.000000000000000000e+00,5.771946175305529003e-01,0.000000000000000000e+00
3.974600261983946559e-01,2.775119526856345553e-01,0.000000000000000000e+00,4.316147542271266402e-01,2.708627546658903262e-01
3.044773514504150458e-01,4.688358411460882280e-01,0.000000000000000000e+00,2.912152738269961350e-01,4.761542411693400756e-01
2.192489415187878488e-01,6.948514800507925582e-01,0.000000000000000000e+00,1.623243296771621491e-01,6.176408040267568067e-01
4.164316450457092311e-02,7.009902152645272055e-01,0.000000000000000000e+00,4.946832689837249442e-02,7.000763341169391474e-01
-9.619878861983639784e-02,7.111052265010964213e-01,0.000000000000000000e+00,-4.452149420853514922e-02,7.303870379749050068e-01
-1.031410596239598076e-01,6.761339098116978530e-01,0.000000000000000000e+00,-1.183344363346511136e-01,7.168979602041716248e-01
-1.698969717358087550e-01,5.649558702222915452e-01,0.000000000000000000e+00,-1.719597070421027551e-01,6.686336109479734668e-01
-2.527230232550592426e-01,5.779968718439825182e-01,0.000000000000000000e+00,-2.064399989410965752e-01,5.947150438774341241e-01
-2.626569900943766522e-01,4.925417964831361739e-01,0.000000000000000000e+00,-2.236170209718548185e-01,5.038664610854522996e-01
-1.189047949158441586e-01,4.319548415255899387e-01,0.000000000000000000e+00,-2.258837635756923423e-01,4.040362322713870191e-01
-2.745015411459388877e-01,2.927487894707443972e-01,0.000000000000000000e+00,-2.159551210893188855e-01,3.021303279589886426e-01
-2.271020097958704742e-01,1.479053809387848029e-01,0.000000000000000000e+00,-1.966653301637306117e-01,2.038506916788972723e-01
-2.132933713879257842e-01,1.280195791838518171e-01,0.000000000000000000e+00,-1.707976791777901793e-01,1.136270307740134961e-01
-1.211563115385075190e-01,2.477891007450356425e-02,0.000000000000000000e+00,-1.409492264020700270e-01,3.462782882886074332e-02
-8.411218925555127846e-02,-4.824051716992263511e-02,0.000000000000000000e+00,-1.094309211342435195e-01,-3.116504594597460306e-02
2.027561168941335867e-02,-1.668635088305356340e-02,0.000000000000000000e+00,-7.820160323230813948e-02,-8.283410543425577532e-02
2.657515188081091551e-04,-9.619563884617426952e-02,0.000000000000000000e+00,-4.883288165234439537e-02,-1.203717949294719203e-01
-2.552911851672206439e-02,-1.156467251789202177e-01,0.000000000000000000e+00,-2.250085421105788366e-02,-1.445079992587675888e-01
-7.550379140420249505e-03,-1.851732078395111059e-01,0.000000000000000000e+00,-2.307297613061884277e-17,-1.565319146802983674e-01
-2.925402670599564631e-02,-2.179072683266415622e-01,0.000000000000000000e+00,0.000000000000000000e+00,-1.581186345029846341e-01
-8.389877704146689319e-03,-1.698357877572961860e-01,0.000000000000000000e+00,0.000000000000000000e+00,-1.511685847625232060e-01
1.874461635513206131e-02,-1.577687502107780193e-01,0.000000000000000000e+00,0.000000000000000000e+00,-1.376657311146114171e-01
-3.819434102654053337e-02,-1.221020476466933014e-01,0.000000000000000000e+00,0.000000000000000000e+00,-1.195583754244531199e-01
-4.889719279583537581e-03,-5.875564152006348267e-02,0.000000000000000000e+00,0.000000000000000000e+00,-9.866445848144901609e-02
-5.995128049646442081e-03,-3.882268572160138542e-02,0.000000000000000000e+00,0.000000000000000000e+00,-7.660164479397045534e-02
1.980034873607565069e-02,-3.122386266317733056e-02,0.000000000000000000e+00,0.000000000000000000e+00,-5.474112226261569625e-02
-9.495607647262430118e-02,-2.833632916063470730e-03,0.000000000000000000e+00,0.000000000000000000e+00,-3.418301715664107121e-02
3.006242904454541325e-03,-6.483133857117084897e-02,0.000000000000000000e+00,0.000000000000000000e+00,-1.575059794774051614e-02
3.137141084647017408e-02,6.214885012038683099e-02,0.000000000000000000e+00,0.000000000000000000e+00,-1.615108329143318994e-17
2.284947299198554233e-03,1.705868281843448677e-03,0.000000000000000000e+00,0.000000000000000000e+00,0.000000000000000000e+00
-2.320798733589284762e-02,2.003589231205915241e-02,0.000000000000000000e+00,0.000000000000000000e+00,0.000000000000000000e+00
-1.543668507917588840e-03,4.117843126219738331e-02,0.000000000000000000e+00,0.000000000000000000e+00,0.000000000000000000e+00
-1.237494228491200499e-01,-1.689307587925835104e-03,0.000000000000000000e+00,0.000000000000000000e+00,0.000000000000000000e+00
-7.328045473876150517e-02,-8.458984491031623643e-02,0.000000000000000000e+00,0.000000000000000000e+00,0.000000000000000000e+00
9.018834956919848100e-02,-4.602554578252415762e-02,0.000000000000000000e+00,0.000000000000000000e+00,0.000000000000000000e+00
-4.841961254327886710e-02,2.571898014072940275e-02,0.000000000000000000e+00,0.000000000000000000e+00,0.000000000000000000e+00
7.293950454344633183e-02,-4.082919996414792474e-02,0.000000000000000000e+00,0.000000000000000000e+00,0.000000000000000000e+00
-1.333291358444041799e-02,-9.757967331321915072e-02,0.000000000000000000e+00,0.000000000000000000e+00,0.000000000000000000e+00
1.863062988043390905e-02,-3.876424065469057101e-03,0.000000000000000000e+00,0.000000000000000000e+00,0.000000000000000000e+00
-5.416161776985227091e-03,-8.377205567628603911e-02,0.000000000000000000e+00,0.000000000000000000e+00,0.000000000000000000e+00
1.004501507431948722e-02,6.161610750455183763e-03,0.000000000000000000e+00,0.000000000000000000e+00,0.000000000000000000e+00
4.626005794732518384e-02,-2.696460684083003614e-02,0.000000000000000000e+00,0.000000000000000000e+00,0.000000000000000000e+00
-6.732463485619802346e-02,5.293898796852088140e-02,0.000000000000000000e+00,0.000000000000000000e+00,0.000000000000000000e+00
2.324026433063499861e-02,-5.514835676636559159e-02,0.000000000000000000e+00,0.000000000000000000e+00,0.000000000000000000e+00
1.059275829115575475e-02,-5.960844394634341736e-02,0.000000000000000000e+00,0.000000000000000000e+00,0.000000000000000000e+00
5.969729449698018414e-02,5.232750773489817236e-02,0.000000000000000000e+00,0.000000000000000000e+00,0.000000000000000000e+00
-1.258983648090283326e-02,-3.028573113550792062e-02,3.246994692046833997e-02,0.000000000000000000e+00,3.246994692046833997e-02
-1.627031889066538756e-02,1.593728364319512703e-01,1.228425425379335301e-01,0.000000000000000000e+00,1.228425425379335301e-01
-6.213228545532328145e-02,2.790073355519629983e-01,2.511499434787585749e-01,0.000000000000000000e+00,2.511499434787585749e-01
-3.306209020231283720e-03,5.514069061357789181e-01,3.877601063757321609e-01,0.000000000000000000e+00,3.877601063757321609e-01
2.199514350599010223e-02,4.474901603121417826e-01,4.982922465033349235e-01,0.000000000000000000e+00,4.982922465033349235e-01
-5.046957363416174069e-02,5.753251128781958768e-01,5.494639959930345263e-01,0.000000000000000000e+00,5.494639959930345263e-01
-7.358848743729000386e-02,4.338841915152490403e-01,5.150067374711921886e-01,0.000000000000000000e+00,5.150067374711921886e-01
2.280444552388886936e-02,4.086392098350644098e-01,3.807579144296589502e-01,0.000000000000000000e+00,3.807579144296589502e-01
-4.075745634062263867e-02,7.484766049142317634e-02,1.481351312526606456e-01,0.000000000000000000e+00,1.481351312526606456e-01
-5.912160614562034580e-03,-1.639600126779900691e-01,-1.645945902807337824e-01,0.000000000000000000e+00,-1.645945902807337824e-01
-2.427119502600147416e-03,-4.250698023473925558e-01,-4.283526537333661732e-01,0.000000000000000000e+00,-4.283526537333661732e-01
-1.070142927335834999e-02,-5.411961592645373464e-01,-5.885791285385050253e-01,0.000000000000000000e+00,-5.885791285385050253e-01
1.511686793479198945e-02,-6.493629593886364182e-01,-6.410413286585400217e-01,0.000000000000000000e+00,-6.410413286585400217e-01
-1.035559298881660456e-01,-5.879208287342072570e-01,-5.979506958040018416e-01,0.000000000000000000e+00,-5.979506958040018416e-01
3.533579939437014178e-02,-4.811291905439696315e-01,-4.847001329696652427e-01,0.000000000000000000e+00,-4.847001329696652427e-01
-7.574900404988579861e-02,-3.316610099251268706e-01,-3.348665913050115073e-01,0.000000000000000000e+00,-3.348665913050115073e-01
3.124932427797254622e-02,-2.249902776124024784e-01,-1.842638138069006837e-01,0.000000000000000000e+00,-1.842638138069006837e-01
-5.745368221553180145e-03,-3.644758130616022884e-02,-6.493989384093673545e-02,0.000000000000000000e+00,-6.493989384093673545e-02
-6.392668084444877441e-02,-1.822145500482055119e-02,-2.449293598294705921e-17,0.000000000000000000e+00,-2.449293598294705921e-17
1.055659239130651503e-02,1.673902298231019770e-02,0.000000000000000000e+00,0.000000000000000000e+00,0.000000000000000000e+00
-3.046935295232963692e-02,-5.001248044210226257e-02,0.000000000000000000e+00,0.000000000000000000e+00,0.000000000000000000e+00
-2.303152827740679795e-02,-3.915949213884005291e-03,0.000000000000000000e+00,0.000000000000000000e+00,0.000000000000000000e+00
-2.763736966048039451e-02,2.203085447622089854e-02,0.000000000000000000e+00,0.000000000000000000e+00,0.000000000000000000e+00
5.587738501520599782e-02,-1.193285612718224427e-02,0.000000000000000000e+00,0.000000000000000000e+00,0.000000000000000000e+00
7.095833071595967177e-03,-3.417259016014580209e-02,0.000000000000000000e+00,0.000000000000000000e+00,0.000000000000000000e+00
7.491554640301768819e-02,-6.056790033726444644e-02,0.000000000000000000e+00,0.000000000000000000e+00,0.000000000000000000e+00
-6.753932442340614475e-03,-1.692141874793257755e-02,0.000000000000000000e+00,0.000000000000000000e+00,0.000000000000000000e+00
5.206013559375319982e-02,-1.085996103728689537e-02,0.000000000000000000e+00,0.000000000000000000e+00,0.000000000000000000e+00
-1.368360871155948266e-03,4.142609974750913020e-03,0.000000000000000000e+00,0.000000000000000000e+00,0.000000000000000000e+00
-1.541973843609197384e-02,-3.215175101625467047e-02,0.000000000000000000e+00,0.000000000000000000e+00,0.000000000000000000e+00
-1.474998101087325424e-02,3.962922749822880147e-02,0.000000000000000000e+00,0.000000000000000000e+00,0.000000000000000000e+00
2.365003754925267335e-02,3.290382036328770576e-02,0.000000000000000000e+00,0.000000000000000000e+00,0.000000000000000000e+00
2.541619895541392515e-03,1.584533556312759522e-02,0.000000000000000000e+00,0.000000000000000000e+00,0.000000000000000000e+00
-1.917939138859540288e-02,-6.544623886660889955e-03,0.000000000000000000e+00,0.000000000000000000e+00,0.000000000000000000e+00
-6.874066212450423430e-02,-1.638560276743332086e-02,0.000000000000000000e+00,0.000000000000000000e+00,0.000000000000000000e+00
1.865202950088228756e-02,-5.382550686575003282e-03,0.000000000000000000e+00,0.000000000000000000e+00,0.000000000000000000e+00
7.443408866158256199e-02,-2.757515134957115783e-04,0.000000000000000000e+00,0.000000000000000000e+00,0.000000000000000000e+00
-5.869554490670919611e-02,-7.557951700579138010e-02,0.000000000000000000e+00,0.000000000000000000e+00,0.000000000000000000e+00
-2.530387547028332268e-02,-1.805385123297903113e-02,0.000000000000000000e+00,0.000000000000000000e+00,0.000000000000000000e+00
-5.540381159287979806e-02,-6.000796031792732591e-03,0.000000000000000000e+00,0.000000000000000000e+00,0.000000000000000000e+00
3.381438999386074395e-02,-6.549508463436483352e-02,0.000000000000000000e+00,0.000000000000000000e+00,0.000000000000000000e+00
4.999803475821875537e-03,-6.930146821800541035e-02,0.000000000000000000e+00,0.000000000000000000e+00,0.000000000000000000e+00
1.424174301015144750e-01,-3.448566914346466034e-02,0.000000000000000000e+00,0.000000000000000000e+00,0.000000000000000000e+00
-1.456500133364082607e-02,1.046538428980937213e-01,0.000000000000000000e+00,0.000000000000000000e+00,0.000000000000000000e+00
-6.618003063503529598e-03,6.242928360451881903e-02,0.000000000000000000e+00,0.000000000000000000e+00,0.000000000000000000e+00
8.667671906047230354e-03,2.153186381423387655e-02,0.000000000000000000e+00,0.000000000000000000e+00,0.000000000000000000e+00
5.374512077630339002e-02,-4.984854651326240532e-02,0.000000000000000000e+00,0.000000000000000000e+00,0.000000000000000000e+00
1.585108671175033956e-02,3.073922917596287954e-02,0.000000000000000000e+00,0.000000000000000000e+00,0.000000000000000000e+00
-4.009885447992442287e-02,1.249405829935441165e-02,0.000000000000000000e+00,0.000000000000000000e+00,0.000000000000000000e+00
5.692347886505626925e-02,-3.889739306235082128e-02,0.000000000000000000e+00,0.000000000000000000e+00,0.000000000000000000e+00
7.135632604877420460e-02,-7.161603136912488184e-03,0.000000000000000000e+00,0.000000000000000000e+00,0.000000000000000000e+00
1.690842739453613242e-01,1.598966386378756696e-02,0.000000000000000000e+00,0.000000000000000000e+00,0.000000000000000000e+00
8.515564535519024036e-02,-1.875787870416442335e-03,0.000000000000000000e+00,0.000000000000000000e+00,0.000000000000000000e+00
2.430072817066510071e-02,7.318918766819658417e-02,0.000000000000000000e+00,0.000000000000000000e+00,0.000000000000000000e+00
-3.904173398201978701e-02,1.194797786790515598e-03,0.000000000000000000e+00,0.000000000000000000e+00,0.000000000000000000e+00
2.241973148117193393e-02,2.654367143679444915e-02,0.000000000000000000e+00,0.000000000000000000e+00,0.000000000000000000e+00
5.575107033587084482e-02,-2.151174622982772108e-02,0.000000000000000000e+00,0.000000000000000000e+00,0.000000000000000000e+00
-3.910370792252914479e-02,-5.608045028029030876e-02,0.000000000000000000e+00,0.000000000000000000e+00,0.000000000000000000e+00
-3.370529292129754301e-02,-2.617294037955068126e-02,0.000000000000000000e+00,0.000000000000000000e+00,0.000000000000000000e+00
1.339294067873423449e-02,2.515523378089697462e-02,0.000000000000000000e+00,0.000000000000000000e+00,0.000000000000000000e+00
-4.444377169233326708e-02,-1.260077636484497471e-02,0.000000000000000000e+00,0.000000000000000000e+00,0.000000000000000000e+00
2.075738794824853219e-03,3.036619891458340603e-02,0.000000000000000000e+00,0.000000000000000000e+00,0.000000000000000000e+00
9.062414607180253878e-02,2.674951191674687298e-02,0.000000000000000000e+00,0.000000000000000000e+00,0.000000000000000000e+00
4.405072279636661897e-02,4.337418458494191401e-03,0.000000000000000000e+00,0.000000000000000000e+00,0.000000000000000000e+00
1.095262960579648261e-02,-6.769244539966635943e-02,0.000000000000000000e+00,0.000000000000000000e+00,0.000000000000000000e+00
3.790355701753073819e-02,-1.942695656781757985e-02,0.000000000000000000e+00,0.000000000000000000e+00,0.000000000000000000e+00
5.140387672570845279e-02,-1.761489426237363223e-02,0.000000000000000000e+00,0.000000000000000000e+00,0.000000000000000000e+00
-9.381436231773872259e-02,1.699199531074147744e-03,0.000000000000000000e+00,0.000000000000000000e+00,0.000000000000000000e+00
-2.103306700915986288e-02,-5.225788451353840375e-02,0.000000000000000000e+00,0.000000000000000000e+00,0.000000000000000000e+00
1.752049647074924513e-02,2.313252387104862764e-02,0.000000000000000000e+00,0.000000000000000000e+00,0.000000000000000000e+00
-3.444622315652759448e-02,7.941623705750631979e-02,0.000000000000000000e+00,0.000000000000000000e+00,0.000000000000000000e+00
-2.138695660127936174e-02,1.904008586778466877e-02,0.000000000000000000e+00,0.000000000000000000e+00,0.000000000000000000e+00
4.508007269554788199e-02,1.925423665745355783e-02,0.000000000000000000e+00,0.000000000000000000e+00,0.000000000000000000e+00
-7.447129295714259578e-02,-9.599482264500457107e-02,0.000000000000000000e+00,0.000000000000000000e+00,0.000000000000000000e+00
-3.939645742306176202e-02,-3.553010498353566943e-02,0.000000000000000000e+00,0.000000000000000000e+00,0.000000000000000000e+00
3.720086143641958970e-02,-4.547288695555540272e-03,0.000000000000000000e+00,0.000000000000000000e+00,0.000000000000000000e+00
-2.402241516852983427e-02,-5.022953271333988057e-02,0.000000000000000000e+00,0.000000000000000000e+00,0.000000000000000000e+00
2.589546015624800274e-02,3.538160313695531967e-02,0.000000000000000000e+00,0.000000000000000000e+00,0.000000000000000000e+00
-1.204045850547426702e-03,1.203990833352586165e-02,0.000000000000000000e+00,0.000000000000000000e+00,0.000000000000000000e+00
-2.501578812094666648e-02,2.708703594244902396e-02,0.000000000000000000e+00,0.000000000000000000e+00,0.000000000000000000e+00
3.114130020463760137e-03,-7.972239534120105497e-02,0.000000000000000000e+00,0.000000000000000000e+00,0.000000000000000000e+00
6.529589567243723747e-02,-6.262904682003819778e-02,0.000000000000000000e+00,0.000000000000000000e+00,0.000000000000000000e+00
-6.487727293904604203e-03,5.670599082241759709e-02,0.000000000000000000e+00,0.000000000000000000e+00,0.000000000000000000e+00
5.833178915332851155e-02,-6.871345729586945950e-02,0.000000000000000000e+00,0.000000000000000000e+00,0.000000000000000000e+00
2.580462567427263196e-02,1.012693898850094976e-02,0.000000000000000000e+00,0.000000000000000000e+00,0.000000000000000000e+00
7.132575315107450575e-02,-7.905104038937604480e-03,0.000000000000000000e+00,0.000000000000000000e+00,0.000000000000000000e+00
4.721808283674331502e-02,1.104293985997003014e-01,0.000000000000000000e+00,0.000000000000000000e+00,0.000000000000000000e+00
2.301252132516999269e-03,-5.594731046871590646e-02,0.000000000000000000e+00,0.000000000000000000e+00,0.000000000000000000e+00
6.176050857687074430e-02,-6.504162072103014669e-02,0.000000000000000000e+00,0.000000000000000000e+00,0.000000000000000000e+00
-1.012953708538100010e-02,8.045249873239625552e-03,0.000000000000000000e+00,0.000000000000000000e+00,0.000000000000000000e+00
3.217763352128395760e-02,4.764539189423561139e-02,0.000000000000000000e+00,0.000000000000000000e+00,0.000000000000000000e+00
-4.091536496408586937e-02,5.965304360147279106e-02,0.000000000000000000e+00,0.000000000000000000e+00,0.000000000000000000e+00
6.591456325771687108e-02,-4.911233764762351628e-02,0.000000000000000000e+00,0.000000000000000000e+00,0.000000000000000000e+00
6.343619423749151387e-02,3.375935418215025852e-02,0.000000000000000000e+00,0.000000000000000000e+00,0.000000000000000000e+00
-3.625891506974868866e-02,-9.453063549983863056e-02,0.000000000000000000e+00,0.000000000000000000e+00,0.000000000000000000e+00
2.012606309329820209e-02,7.319259055302665407e-02,0.000000000000000000e+00,0.000000000000000000e+00,0.000000000000000000e+00
-1.577508237539422542e-02,1.821289870961106602e-02,0.000000000000000000e+00,0.000000000000000000e+00,0.000000000000000000e+00
1.894279744564781806e-02,-1.261089571439692192e-01,0.000000000000000000e+00,0.000000000000000000e+00,0.000000000000000000e+00
3.286023039079957048e-02,-1.122145207237245360e-04,0.000000000000000000e+00,0.000000000000000000e+00,0.000000000000000000e+00
-2.906523063886690822e-02,-4.760247325004307584e-02,0.000000000000000000e+00,0.000000000000000000e+00,0.000000000000000000e+00
-1.090483234551174394e-02,-4.225374634647377503e-02,0.000000000000000000e+00,0.000000000000000000e+00,0.000000000000000000e+00
-6.799898024954806330e-02,6.477593211273335871e-02,0.000000000000000000e+00,0.000000000000000000e+00,0.000000000000000000e+00
1.180560221287145356e-01,-4.420368684986775154e-02,0.000000000000000000e+00,0.000000000000000000e+00,0.000000000000000000e+00
1.638957367213473779e-02,-5.797023019410316169e-02,0.000000000000000000e+00,0.000000000000000000e+00,0.000000000000000000e+00
7.906844976693215565e-03,5.918083905774389891e-02,0.000000000000000000e+00,0.000000000000000000e+00,0.000000000000000000e+00
1.015084854560165985e-02,4.147111390482358106e-02,0.000000000000000000e+00,0.000000000000000000e+00,0.000000000000000000e+00
-4.849162185775721112e-02,-3.897561730704268701e-02,0.000000000000000000e+00,0.000000000000000000e+00,0.000000000000000000e+00
4.570895965717041570e-02,-5.380268041611008245e-02,0.000000000000000000e+00,0.000000000000000000e+00,0.000000000000000000e+00
3.541855744953822244e-02,-7.343909524479573514e-03,0.000000000000000000e+00,0.000000000000000000e+00,0.000000000000000000e+00
-2.208370116547980072e-02,5.836659623359024412e-02,0.000000000000000000e+00,0.000000000000000000e+00,0.000000000000000000e+00
-1.161113067028738954e-01,1.755156704288208039e-02,0.000000000000000000e+00,0.000000000000000000e+00,0.000000000000000000e+00
3.674177532333294111e-02,3.146227593712790788e-02,0.000000000000000000e+00,0.000000000000000000e+00,0.000000000000000000e+00
-4.792929036175939267e-02,-6.715919957461504060e-03,0.000000000000000000e+00,0.000000000000000000e+00,0.000000000000000000e+00
-2.724978944191388044e-02,-3.282426892513511801e-02,0.000000000000000000e+00,0.000000000000000000e+00,0.000000000000000000e+00
-2.617546720843090535e-02,-4.407884407909946900e-02,0.000000000000000000e+00,0.000000000000000000e+00,0.000000000000000000e+00
-7.896359098872716975e-02,-1.883555126328646800e-02,0.000000000000000000e+00,0.000000000000000000e+00,0.000000000000000000e+00
1.318823053145938388e-03,-6.582496414547299446e-02,0.000000000000000000e+00,0.000000000000000000e+00,0.000000000000000000e+00
-2.080335407794024066e-02,-2.354453077771604189e-02,0.000000000000000000e+00,0.000000000000000000e+00,0.000000000000000000e+00
-5.252346482223396729e-02,-1.554447126075121123e-02,0.000000000000000000e+00,0.000000000000000000e+00,0.000000000000000000e+00
-1.199635034416541429e-02,-6.393054099779431343e-02,0.000000000000000000e+00,0.000000000000000000e+00,0.000000000000000000e+00
7.033887730987310738e-02,-2.724950617046315721e-02,0.000000000000000000e+00,0.000000000000000000e+00,0.000000000000000000e+00
-2.329908433734032003e-02,-1.356153175298129877e-02,0.000000000000000000e+00,0.000000000000000000e+00,0.000000000000000000e+00
6.918388544643279403e-02,5.428417370465388192e-02,0.000000000000000000e+00,0.000000000000000000e+00,0.000000000000000000e+00
-2.012099630646434212e-02,8.631273106151110541e-02,0.000000000000000000e+00,0.000000000000000000e+00,0.000000000000000000e+00
1.205778140127670706e-01,-1.358915659378237030e-02,0.000000000000000000e+00,0.000000000000000000e+00,0.000000000000000000e+00
4.959304875004172386e-02,-4.976365352209664167e-03,0.000000000000000000e+00,0.000000000000000000e+00,0.000000000000000000e+00
3.464858012557541639e-02,-6.336641015083395445e-02,0.000000000000000000e+00,0.000000000000000000e+00,0.000000000000000000e+00
3.643097640402803705e-02,4.627940011868623971e-02,0.000000000000000000e+00,0.000000000000000000e+00,0.000000000000000000e+00
-4.506029635631092489e-02,9.332402361272901237e-02,0.000000000000000000e+00,0.000000000000000000e+00,0.000000000000000000e+00
4.330499125152993678e-02,-4.140738811764288485e-02,0.000000000000000000e+00,0.000000000000000000e+00,0.000000000000000000e+00
-3.068533145771307202e-02,2.417021305451223442e-03,0.000000000000000000e+00,0.000000000000000000e+00,0.000000000000000000e+00
2.918124338697698078e-02,3.972452763933576741e-02,3.246994692046833997e-02,0.000000000000000000e+00,3.246994692046833997e-02
3.145733702667932730e-02,1.818288766538822820e-01,1.228425425379335301e-01,0.000000000000000000e+00,1.228425425379335301e-01
-1.233723948540048354e-02,2.512824231202464564e-01,2.511499434787585749e-01,0.000000000000000000e+00,2.511499434787585749e-01
-1.510699978199361339e-02,4.072443746867695502e-01,3.877601063757321609e-01,0.000000000000000000e+00,3.877601063757321609e-01
6.555270124786726285e-03,5.678365815448702669e-01,4.982922465033349235e-01,0.000000000000000000e+00,4.982922465033349235e-01
-3.990496385117099643e-02,5.459497297200959220e-01,5.494639959930345263e-01,0.000000000000000000e+00,5.494639959930345263e-01
1.767636653161669402e-02,5.177034871317518494e-01,5.150067374711921886e-01,0.000000000000000000e+00,5.150067374711921886e-01
-6.943540276262565036e-02,4.059511938990936764e-01,3.807579144296589502e-01,0.000000000000000000e+00,3.807579144296589502e-01
6.622014951438204289e-02,1.893572156402041073e-01,1.481351312526606456e-01,0.000000000000000000e+00,1.481351312526606456e-01
1.780718321857150885e-02,-1.053605833950775061e-01,-1.645945902807337824e-01,0.000000000000000000e+00,-1.645945902807337824e-01
4.382324346324842357e-02,-4.225748010479614680e-01,-4.283526537333661732e-01,0.000000000000000000e+00,-4.283526537333661732e-01
-6.709003130502040613e-02,-4.614225323219078301e-01,-5.885791285385050253e-01,0.000000000000000000e+00,-5.885791285385050253e-01
7.219809431920372507e-03,-6.055755576722473554e-01,-6.410413286585400217e-01,0.000000000000000000e+00,-6.410413286585400217e-01
3.922436788577881445e-02,-5.747023796013166486e-01,-5.979506958040018416e-01,0.000000000000000000e+00,-5.979506958040018416e-01
-1.488380776265689487e-01,-4.087346627994222770e-01,-4.847001329696652427e-01,0.000000000000000000e+00,-4.847001329696652427e-01
-4.965809908836407716e-02,-2.299365646065600899e-01,-3.348665913050115073e-01,0.000000000000000000e+00,-3.348665913050115073e-01
-3.184742323655630203e-02,-2.600924663858539265e-01,-1.842638138069006837e-01,0.000000000000000000e+00,-1.842638138069006837e-01
-6.488552859538419815e-02,3.248082414859909672e-03,-6.493989384093673545e-02,0.000000000000000000e+00,-6.493989384093673545e-02
3.202591722879003650e-02,3.380632279433797710e-02,-2.449293598294705921e-17,0.000000000000000000e+00,-2.449293598294705921e-17
-3.559446561608497345e-02,-6.778609295430811088e-02,0.000000000000000000e+00,0.000000000000000000e+00,0.000000000000000000e+00
2.947595104796798746e-02,1.995149071075046077e-02,0.000000000000000000e+00,0.000000000000000000e+00,0.000000000000000000e+00
4.550468374098526336e-02,-3.891915429277017363e-02,0.000000000000000000e+00,0.000000000000000000e+00,0.000000000000000000e+00
2.326525045314600457e-02,8.979637053090834195e-03,0.000000000000000000e+00,0.000000000000000000e+00,0.000000000000000000e+00
1.095691918993861036e-01,2.048573135917300999e-03,0.000000000000000000e+00,0.000000000000000000e+00,0.000000000000000000e+00
2.048137733367012738e-03,-6.207941542793556089e-02,0.000000000000000000e+00,0.000000000000000000e+00,0.000000000000000000e+00
7.592401078036628732e-03,2.427602382342593235e-02,0.000000000000000000e+00,0.000000000000000000e+00,0.000000000000000000e+00
3.408006216384229514e-01,-6.042665392103522409e-02,0.000000000000000000e+00,3.869467923798433628e-01,0.000000000000000000e+00
7.793374373666928090e-01,1.165843121073360661e-01,0.000000000000000000e+00,6.802203445276286953e-01,0.000000000000000000e+00
9.456885039821656402e-01,-7.570387199613146101e-02,0.000000000000000000e+00,8.823440057525097080e-01,0.000000000000000000e+00
1.035301424262618619e+00,1.220684142753539203e-02,0.000000000000000000e+00,1.000109048738484496e+00,0.000000000000000000e+00
1.066487057368047386e+00,-2.936308742963748830e-02,0.000000000000000000e+00,1.043410054249864327e+00,0.000000000000000000e+00
1.072024549767099488e+00,-3.409211462697558231e-02,0.000000000000000000e+00,1.024139943148816734e+00,0.000000000000000000e+00
1.003509759565110793e+00,2.942042699942228404e-02,0.000000000000000000e+00,9.551908727828193335e-01,0.000000000000000000e+00
9.321844971941671831e-01,-3.066901606042355538e-02,0.000000000000000000e+00,8.495929198249059233e-01,0.000000000000000000e+00
7.379150125842105501e-01,-1.759718639259096789e-03,0.000000000000000000e+00,7.198092301220747613e-01,0.000000000000000000e+00
5.753731050673139835e-01,1.954714921820079748e-02,0.000000000000000000e+00,5.771946175305529003e-01,0.000000000000000000e+00
3.912405008706146825e-01,2.280626104085101136e-01,0.000000000000000000e+00,4.316147542271266402e-01,2.708627546658903262e-01
4.254574239651857104e-01,4.553629656021177530e-01,0.000000000000000000e+00,2.912152738269961350e-01,4.761542411693400756e-01
1.295881447044548718e-01,6.307646433906028971e-01,0.000000000000000000e+00,1.623243296771621491e-01,6.176408040267568067e-01
5.926374614494109988e-02,7.175961374718415886e-01,0.000000000000000000e+00,4.946832689837249442e-02,7.000763341169391474e-01
-6.119676792464698312e-02,7.053107808854264249e-01,0.000000000000000000e+00,-4.452149420853514922e-02,7.303870379749050068e-01
-2.253842421135928142e-01,6.801860923792517610e-01,0.000000000000000000e+00,-1.183344363346511136e-01,7.168979602041716248e-01
-2.176739553519712600e-01,6.580055885493398815e-01,0.000000000000000000e+00,-1.719597070421027551e-01,6.686336109479734668e-01
-1.325220158942985449e-01,5.644168396830440138e-01,0.000000000000000000e+00,-2.064399989410965752e-01,5.947150438774341241e-01
-1.252282787500632044e-01,5.567485550387302196e-01,0.000000000000000000e+00,-2.236170209718548185e-01,5.038664610854522996e-01
-2.130991970270532387e-01,3.432476996852383833e-01,0.000000000000000000e+00,-2.258837635756923423e-01,4.040362322713870191e-01
-2.162687027542953833e-01,3.188154752836366290e-01,0.000000000000000000e+00,-2.159551210893188855e-01,3.021303279589886426e-01
-1.905238354712133486e-01,2.642145347601412286e-01,0.000000000000000000e+00,-1.966653301637306117e-01,2.038506916788972723e-01
-1.247171642121910756e-01,1.390937856282557505e-01,0.000000000000000000e+00,-1.707976791777901793e-01,1.136270307740134961e-01
-1.601786066914287765e-01,-8.174151032769717828e-02,0.000000000000000000e+00,-1.409492264020700270e-01,3.462782882886074332e-02
-9.447358952383246022e-02,-3.419114282161796886e-02,0.000000000000000000e+00,-1.094309211342435195e-01,-3.116504594597460306e-02
-7.165107974999178342e-02,-5.829898602870350888e-02,0.000000000000000000e+00,-7.820160323230813948e-02,-8.283410543425577532e-02
-7.822133379793014263e-02,-1.302958338516708725e-01,0.000000000000000000e+00,-4.883288165234439537e-02,-1.203717949294719203e-01
-4.197215138038018489e-02,-1.019887203263016850e-01,0.000000000000000000e+00,-2.250085421105788366e-02,-1.445079992587675888e-01
1.210496599790646943e-01,-1.399777454379131647e-01,0.000000000000000000e+00,-2.307297613061884277e-17,-1.565319146802983674e-01
6.949680646241876425e-02,-8.198683475824530831e-02,0.000000000000000000e+00,0.000000000000000000e+00,-1.581186345029846341e-01
-2.061889083363676548e-03,-2.551302429835526353e-01,0.000000000000000000e+00,0.000000000000000000e+00,-1.511685847625232060e-01
3.115119947611779197e-02,-1.756210565213475738e-01,0.000000000000000000e+00,0.000000000000000000e+00,-1.376657311146114171e-01
-8.778892749664632400e-02,-8.136397704010543686e-02,0.000000000000000000e+00,0.000000000000000000e+00,-1.195583754244531199e-01
-1.184294930702309012e-01,-5.583822996171153991e-02,0.000000000000000000e+00,0.000000000000000000e+00,-9.866445848144901609e-02
-2.959516361912305563e-02,-4.076103358598256315e-02,0.000000000000000000e+00,0.000000000000000000e+00,-7.660164479397045534e-02
9.623964259917103942e-03,-5.662669314613759386e-02,0.000000000000000000e+00,0.000000000000000000e+00,-5.474112226261569625e-02
-3.797848459836029866e-02,-1.861085756307646888e-02,0.000000000000000000e+00,0.000000000000000000e+00,-3.418301715664107121e-02
3.991663992500543018e-02,5.686689100528313778e-02,0.000000000000000000e+00,0.000000000000000000e+00,-1.575059794774051614e-02
2.602298734083705739e-02,-1.346516163824428881e-02,0.000000000000000000e+00,0.000000000000000000e+00,-1.615108329143318994e-17
1.141301857286546734e-02,-1.645733011674006948e-03,0.000000000000000000e+00,0.000000000000000000e+00,0.000000000000000000e+00
3.539529526186895730e-02,8.707622801541868574e-02,0.000000000000000000e+00,0.000000000000000000e+00,0.000000000000000000e+00
2.777613740708012591e-02,-6.121674789276373985e-02,0.000000000000000000e+00,0.000000000000000000e+00,0.000000000000000000e+00
-2.563543848633421940e-02,3.005152710447323711e-02,0.000000000000000000e+00,0.000000000000000000e+00,0.000000000000000000e+00
4.801856716175385148e-02,1.274473663570527271e-02,0.000000000000000000e+00,0.000000000000000000e+00,0.000000000000000000e+00
6.233043025133871290e-03,5.387635834315920164e-03,0.000000000000000000e+00,0.000000000000000000e+00,0.000000000000000000e+00
6.362400508275084521e-02,-3.776357630339557611e-03,0.000000000000000000e+00,0.000000000000000000e+00,0.000000000000000000e+00
1.761587905031450395e-03,-1.079634163343510256e-01,0.000000000000000000e+00,0.000000000000000000e+00,0.000000000000000000e+00
6.765170153874743020e-02,-5.508400159969240040e-02,0.000000000000000000e+00,0.000000000000000000e+00,0.000000000000000000e+00
1.076579216951373784e-02,3.826334865940370783e-02,0.000000000000000000e+00,0.000000000000000000e+00,0.000000000000000000e+00
-6.858819424539448761e-02,-5.490631147100849541e-02,0.000000000000000000e+00,0.000000000000000000e+00,0.000000000000000000e+00
-3.521184107042853867e-02,5.275607688063924106e-02,0.000000000000000000e+00,0.000000000000000000e+00,0.000000000000000000e+00
3.055591800700846461e-02,7.492348768811653292e-02,0.000000000000000000e+00,0.000000000000000000e+00,0.000000000000000000e+00
-7.958752671833822789e-02,-4.321736246606786708e-02,0.000000000000000000e+00,0.000000000000000000e+00,0.000000000000000000e+00
-2.734806107843497369e-02,2.435092534123112912e-02,0.000000000000000000e+00,0.000000000000000000e+00,0.000000000000000000e+00
5.495706543755808637e-02,2.591714640189025226e-02,0.000000000000000000e+00,0.000000000000000000e+00,0.000000000000000000e+00
2.982811138119138145e-02,5.852915330862900473e-02,0.000000000000000000e+00,0.000000000000000000e+00,0.000000000000000000e+00
-4.294816932194364667e-02,1.774653140326344983e-02,0.000000000000000000e+00,0.000000000000000000e+00,0.000000000000000000e+00
9.192126544131984378e-02,3.381417390077581797e-02,0.000000000000000000e+00,0.000000000000000000e+00,0.000000000000000000e+00
9.136920963129305240e-02,2.479266498795038021e-02,0.000000000000000000e+00,0.000000000000000000e+00,0.000000000000000000e+00
-1.804504357969616973e-02,-2.009234563912850463e-02,0.000000000000000000e+00,0.000000000000000000e+00,0.000000000000000000e+00
3.434825877313054526e-02,-1.701919614258270291e-02,0.000000000000000000e+00,0.000000000000000000e+00,0.000000000000000000e+00
-1.489555293332900203e-02,3.001179978664839099e-02,0.000000000000000000e+00,0.000000000000000000e+00,0.000000000000000000e+00
3.727156574629401919e-02,-9.426785493527378712e-02,0.000000000000000000e+00,0.000000000000000000e+00,0.000000000000000000e+00
1.958902778616307752e-02,-9.229706011982079239e-02,0.000000000000000000e+00,0.000000000000000000e+00,0.000000000000000000e+00
1.642023515111639201e-02,4.374709478559510312e-02,0.000000000000000000e+00,0.000000000000000000e+00,0.000000000000000000e+00
-6.999359869991722549e-02,-2.338939160050702154e-02,0.000000000000000000e+00,0.000000000000000000e+00,0.000000000000000000e+00
-2.304627394722983530e-02,3.383232546772008131e-02,0.000000000000000000e+00,0.000000000000000000e+00,0.000000000000000000e+00
-1.567080411992620437e-02,-2.057525360822693491e-03,0.000000000000000000e+00,0.000000000000000000e+00,0.000000000000000000e+00
3.653881085516295230e-02,-2.747760089448625029e-02,0.000000000000000000e+00,0.000000000000000000e+00,0.000000000000000000e+00
-1.195704598426775705e-02,-2.010721616201040229e-02,0.000000000000000000e+00,0.000000000000000000e+00,0.000000000000000000e+00
-1.345168138256348962e-03,-2.447322112286142923e-02,0.000000000000000000e+00,0.000000000000000000e+00,0.000000000000000000e+00
1.361403373306271924e-02,-8.820259274374391001e-02,0.000000000000000000e+00,0.000000000000000000e+00,0.000000000000000000e+00
-1.870145781813276412e-02,3.021454028741776474e-02,0.000000000000000000e+00,0.000000000000000000e+00,0.000000000000000000e+00
-5.618926826371990757e-02,-1.170661898067689999e-01,0.000000000000000000e+00,0.000000000000000000e+00,0.000000000000000000e+00
6.216314233404031386e-02,-5.857535700307824750e-02,0.000000000000000000e+00,0.000000000000000000e+00,0.000000000000000000e+00
-7.223287715022893435e-03,1.758809683932210932e-02,0.000000000000000000e+00,0.000000000000000000e+00,0.000000000000000000e+00
1.005645682773893823e-01,1.450115096186588987e-02,0.000000000000000000e+00,0.000000000000000000e+00,0.000000000000000000e+00
-5.855008503553903523e-03,-2.725634269941858145e-02,0.000000000000000000e+00,0.000000000000000000e+00,0.000000000000000000e+00
9.327322635324691857e-02,-2.538520414342842688e-02,0.000000000000000000e+00,0.000000000000000000e+00,0.000000000000000000e+00
-6.805442598234799634e-02,4.879676114145301002e-02,0.000000000000000000e+00,0.000000000000000000e+00,0.000000000000000000e+00
3.140947615020882322e-02,-6.617589862271432317e-03,0.000000000000000000e+00,0.000000000000000000e+00,0.000000000000000000e+00
-1.690739629128488802e-03,6.307318954947026268e-02,0.000000000000000000e+00,0.000000000000000000e+00,0.000000000000000000e+00
5.167580094737448532e-02,3.212471844343899735e-02,0.000000000000000000e+00,0.000000000000000000e+00,0.000000000000000000e+00
-2.305362985924470573e-02,3.489685690180053396e-02,0.000000000000000000e+00,0.000000000000000000e+00,0.000000000000000000e+00
2.299562714217924173e-02,-5.538152023936774443e-02,0.000000000000000000e+00,0.000000000000000000e+00,0.000000000000000000e+00
7.139232561911732118e-03,-1.253822616568497916e-02,0.000000000000000000e+00,0.000000000000000000e+00,0.000000000000000000e+00
9.908213053326016696e-04,-2.277899073999565399e-02,0.000000000000000000e+00,0.000000000000000000e+00,0.000000000000000000e+00
-3.943643467979444407e-03,-2.980606982238417912e-02,0.000000000000000000e+00,0.000000000000000000e+00,0.000000000000000000e+00
2.442467201123123266e-02,-4.742909325455298142e-02,0.000000000000000000e+00,0.000000000000000000e+00,0.000000000000000000e+00
-4.809467964793952624e-03,-1.522167979028147405e-02,0.000000000000000000e+00,0.000000000000000000e+00,0.000000000000000000e+00
1.119053958667223445e-02,-1.445701425887320826e-03,0.000000000000000000e+00,0.000000000000000000e+00,0.000000000000000000e+00
-7.544921288941837390e-02,-9.614335646536338251e-03,0.000000000000000000e+00,0.000000000000000000e+00,0.000000000000000000e+00
-1.041172179546318022e-02,1.100917510973739750e-02,0.000000000000000000e+00,0.000000000000000000e+00,0.000000000000000000e+00
-2.523284590304390208e-03,4.522086239528602669e-02,0.000000000000000000e+00,0.000000000000000000e+00,0.000000000000000000e+00
2.636586241841241268e-02,3.197286415959187805e-03,0.000000000000000000e+00,0.000000000000000000e+00,0.000000000000000000e+00
3.667336123657469193e-02,-6.826967672886070926e-02,0.000000000000000000e+00,0.000000000000000000e+00,0.000000000000000000e+00
-8.209506489721406230e-02,-6.370224105973263003e-03,0.000000000000000000e+00,0.000000000000000000e+00,0.000000000000000000e+00
-2.200099957207285462e-02,2.313513829983964570e-02,0.000000000000000000e+00,0.000000000000000000e+00,0.000000000000000000e+00
-2.254066830871160818e-02,-4.716680103605130209e-02,0.000000000000000000e+00,0.000000000000000000e+00,0.000000000000000000e+00
9.229433854562886161e-03,-3.728754512807468113e-02,0.000000000000000000e+00,0.000000000000000000e+00,0.000000000000000000e+00
3.542189846264826719e-02,-1.015821282649712574e-02,0.000000000000000000e+00,0.000000000000000000e+00,0.000000000000000000e+00
4.390196728441453713e-03,3.639553645428200007e-02,3.246994692046833997e-02,0.000000000000000000e+00,3.246994692046833997e-02
-7.026150873833481025e-02,1.586292562086901725e-01,1.228425425379335301e-01,0.000000000000000000e+00,1.228425425379335301e-01
5.862996239479981164e-02,3.429353487473791873e-01,2.511499434787585749e-01,0.000000000000000000e+00,2.511499434787585749e-01
3.371857753434688576e-02,3.914618231798955295e-01,3.877601063757321609e-01,0.000000000000000000e+00,3.877601063757321609e-01
-5.953204832468588642e-02,5.887275786741399397e-01,4.982922465033349235e-01,0.000000000000000000e+00,4.982922465033349235e-01
-9.988827577448500250e-02,5.727878911067443291e-01,5.494639959930345263e-01,0.000000000000000000e+00,5.494639959930345263e-01
3.797345341302302280e-02,4.662644879935424203e-01,5.150067374711921886e-01,0.000000000000000000e+00,5.150067374711921886e-01
-5.612766113706707527e-02,3.788324248567821462e-01,3.807579144296589502e-01,0.000000000000000000e+00,3.807579144296589502e-01
-3.109152378719560322e-02,8.279129916018837521e-02,1.481351312526606456e-01,0.000000000000000000e+00,1.481351312526606456e-01
1.424139476168716570e-02,-1.694223254162031400e-01,-1.645945902807337824e-01,0.000000000000000000e+00,-1.645945902807337824e-01
5.338757086677770047e-02,-4.460750285434610940e-01,-4.283526537333661732e-01,0.000000000000000000e+00,-4.283526537333661732e-01
-5.770852139623673660e-02,-6.033376584538481247e-01,-5.885791285385050253e-01,0.000000000000000000e+00,-5.885791285385050253e-01
3.447066862508889329e-02,-6.176709297684406241e-01,-6.410413286585400217e-01,0.000000000000000000e+00,-6.410413286585400217e-01
4.793982259755964759e-02,-6.089106802916300909e-01,-5.979506958040018416e-01,0.000000000000000000e+00,-5.979506958040018416e-01
-3.407834397879032449e-03,-5.525290378944598402e-01,-4.847001329696652427e-01,0.000000000000000000e+00,-4.847001329696652427e-01
-1.967984954302697681e-02,-3.310793240820416039e-01,-3.348665913050115073e-01,0.000000000000000000e+00,-3.348665913050115073e-01
-8.147415311966869911e-02,-2.066436350508497055e-01,-1.842638138069006837e-01,0.000000000000000000e+00,-1.842638138069006837e-01
-1.285826608808938488e-02,-9.382369341764194848e-02,-6.493989384093673545e-02,0.000000000000000000e+00,-6.493989384093673545e-02
4.696034553255232225e-02,-3.481022105823809200e-03,-2.449293598294705921e-17,0.000000000000000000e+00,-2.449293598294705921e-17
2.570836150815032986e-02,-7.412476707811344045e-02,0.000000000000000000e+00,0.000000000000000000e+00,0.000000000000000000e+00
1.037872747494934522e-01,-9.230128844213397743e-03,0.000000000000000000e+00,0.000000000000000000e+00,0.000000000000000000e+00
-6.154554668608933077e-02,-4.917958690865653626e-02,0.000000000000000000e+00,0.000000000000000000e+00,0.000000000000000000e+00
1.262805192323422122e-02,4.593723975482225108e-02,0.000000000000000000e+00,0.000000000000000000e+00,0.000000000000000000e+00
-4.923528403832626993e-02,-8.243062261910807931e-02,0.000000000000000000e+00,0.000000000000000000e+00,0.000000000000000000e+00
-5.834152651719277938e-02,4.375377813953540418e-02,0.000000000000000000e+00,0.000000000000000000e+00,0.000000000000000000e+00
-2.247097160234062807e-02,-4.215126621880550123e-02,0.000000000000000000e+00,0.000000000000000000e+00,0.000000000000000000e+00
-1.847636843632554857e-02,3.104274087605471064e-02,0.000000000000000000e+00,0.000000000000000000e+00,0.000000000000000000e+00
-3.858268200313925977e-02,-6.565320077407070520e-02,0.000000000000000000e+00,0.000000000000000000e+00,0.000000000000000000e+00
1.558084325252193647e-01,-1.326849437422634309e-02,0.000000000000000000e+00,0.000000000000000000e+00,0.000000000000000000e+00
4.902171368956764752e-02,5.785341891457913832e-03,0.000000000000000000e+00,0.000000000000000000e+00,0.000000000000000000e+00
-2.385150553393586975e-02,-8.945581696932859705e-02,0.000000000000000000e+00,0.000000000000000000e+00,0.000000000000000000e+00
-5.790138764272326211e-03,1.695284982614097408e-02,0.000000000000000000e+00,0.000000000000000000e+00,0.000000000000000000e+00
8.314493868411336475e-02,-8.254408176462679769e-02,0.000000000000000000e+00,0.000000000000000000e+00,0.000000000000000000e+00
5.319097287000815188e-02,2.697573225061128399e-02,0.000000000000000000e+00,0.000000000000000000e+00,0.000000000000000000e+00
3.268935887997100748e-02,3.121520482051078418e-02,0.000000000000000000e+00,0.000000000000000000e+00,0.000000000000000000e+00
-4.053042713343196768e-02,-5.281454902106968302e-02,0.000000000000000000e+00,0.000000000000000000e+00,0.000000000000000000e+00
-9.493556740178110687e-02,2.883819944340896418e-02,0.000000000000000000e+00,0.000000000000000000e+00,0.000000000000000000e+00
-1.512225815317084880e-02,-3.735992899488005392e-02,0.000000000000000000e+00,0.000000000000000000e+00,0.000000000000000000e+00
1.691216818925451656e-02,8.711371383309141070e-02,0.000000000000000000e+00,0.000000000000000000e+00,0.000000000000000000e+00
1.513707887103751641e-02,-1.165199070543631102e-02,0.000000000000000000e+00,0.000000000000000000e+00,0.000000000000000000e+00
-3.731525689923079897e-02,-1.674811026583356011e-02,0.000000000000000000e+00,0.000000000000000000e+00,0.000000000000000000e+00
-7.531701131478051037e-02,-6.842591434712730347e-02,0.000000000000000000e+00,0.000000000000000000e+00,0.000000000000000000e+00
-1.277838954834890905e-02,-1.179550389249178419e-02,0.000000000000000000e+00,0.000000000000000000e+00,0.000000000000000000e+00
-4.872689477978785211e-02,8.121426982193580280e-02,0.000000000000000000e+00,0.000000000000000000e+00,0.000000000000000000e+00
-8.778490476680866905e-02,5.165940350830733330e-02,0.000000000000000000e+00,0.000000000000000000e+00,0.000000000000000000e+00
1.248158856323848022e-02,1.796947502914252384e-02,0.000000000000000000e+00,0.000000000000000000e+00,0.000000000000000000e+00
1.914675831529763853e-02,-9.374581568393507147e-02,0.000000000000000000e+00,0.000000000000000000e+00,0.000000000000000000e+00
-9.980735118181259524e-02,3.067559818716701983e-02,0.000000000000000000e+00,0.000000000000000000e+00,0.000000000000000000e+00
-9.534568701651605083e-02,5.662016530698282812e-02,0.000000000000000000e+00,0.000000000000000000e+00,0.000000000000000000e+00
-5.120019953353706355e-02,-2.869108899586492178e-02,0.000000000000000000e+00,0.000000000000000000e+00,0.000000000000000000e+00
-5.087180195527538779e-02,-2.552099695894939624e-02,0.000000000000000000e+00,0.000000000000000000e+00,0.000000000000000000e+00
4.624333537818687417e-02,-3.559808359661258831e-02,0.000000000000000000e+00,0.000000000000000000e+00,0.000000000000000000e+00
4.727841570345611699e-02,4.545860122888708416e-03,0.000000000000000000e+00,0.000000000000000000e+00,0.000000000000000000e+00
-4.463265708349280214e-02,-2.449243215706859919e-02,0.000000000000000000e+00,0.000000000000000000e+00,0.000000000000000000e+00
1.079669773206598472e-03,7.832193243789484574e-03,0.000000000000000000e+00,0.000000000000000000e+00,0.000000000000000000e+00
-1.819065027456113690e-03,2.392949520280877526e-02,0.000000000000000000e+00,0.000000000000000000e+00,0.000000000000000000e+00
-3.107196895423160535e-03,1.942385315049955513e-02,0.000000000000000000e+00,0.000000000000000000e+00,0.000000000000000000e+00
1.984353452729717068e-02,-5.682653232488692890e-02,0.000000000000000000e+00,0.000000000000000000e+00,0.000000000000000000e+00
-2.378670166612020451e-02,-1.492143942449346977e-02,0.000000000000000000e+00,0.000000000000000000e+00,0.000000000000000000e+00
-1.224988791449631298e-02,6.797665948379859324e-02,0.000000000000000000e+00,0.000000000000000000e+00,0.000000000000000000e+00
-5.168024965922904390e-02,-3.546364797040891387e-02,0.000000000000000000e+00,0.000000000000000000e+00,0.000000000000000000e+00
-8.053435581677159671e-02,7.834495169315659063e-03,0.000000000000000000e+00,0.000000000000000000e+00,0.000000000000000000e+00
7.157465796364596844e-02,-2.015372211245075595e-02,0.000000000000000000e+00,0.000000000000000000e+00,0.000000000000000000e+00
-3.622701679387588941e-02,5.486131958244518103e-02,0.000000000000000000e+00,0.000000000000000000e+00,0.000000000000000000e+00
-8.830027841755721607e-05,4.940935268245694872e-02,0.000000000000000000e+00,0.000000000000000000e+00,0.000000000000000000e+00
4.014298688887876776e-02,5.355541733007485559e-03,0.000000000000000000e+00,0.000000000000000000e+00,0.000000000000000000e+00
4.179313980204146101e-02,-8.833549305254539963e-02,0.000000000000000000e+00,0.000000000000000000e+00,0.000000000000000000e+00
-5.354172139487141380e-02,-8.350154160539401474e-03,0.000000000000000000e+00,0.000000000000000000e+00,0.000000000000000000e+00
4.637747781711293871e-01,-1.214386557354217439e-01,0.000000000000000000e+00,3.869467923798433628e-01,0.000000000000000000e+00
7.440952170911796504e-01,4.799537934817035834e-02,0.000000000000000000e+00,6.802203445276286953e-01,0.000000000000000000e+00
9.455806278008074273e-01,-2.280503384549285167e-02,0.000000000000000000e+00,8.823440057525097080e-01,0.000000000000000000e+00
9.933942145995829920e-01,3.035219929159979277e-02,0.000000000000000000e+00,1.000109048738484496e+00,0.000000000000000000e+00
1.040613164043687311e+00,-6.205469450393705753e-03,0.000000000000000000e+00,1.043410054249864327e+00,0.000000000000000000e+00
1.009443871544862814e+00,-3.079953777274656648e-02,0.000000000000000000e+00,1.024139943148816734e+00,0.000000000000000000e+00
9.537186776045341041e-01,-5.867096387105304178e-02,0.000000000000000000e+00,9.551908727828193335e-01,0.000000000000000000e+00
8.446952226446715617e-01,1.143251930579053215e-02,0.000000000000000000e+00,8.495929198249059233e-01,0.000000000000000000e+00
6.881520689499627252e-01,4.096144173605023586e-02,0.000000000000000000e+00,7.198092301220747613e-01,0.000000000000000000e+00
6.275889742439112462e-01,2.791867705663489407e-02,0.000000000000000000e+00,5.771946175305529003e-01,0.000000000000000000e+00
4.312780149822011966e-01,3.428959831527673696e-01,0.000000000000000000e+00,4.316147542271266402e-01,2.708627546658903262e-01
2.744345866788491239e-01,4.648832989435034979e-01,0.000000000000000000e+00,2.912152738269961350e-01,4.761542411693400756e-01
1.400828985326504628e-01,6.392213027867776898e-01,0.000000000000000000e+00,1.623243296771621491e-01,6.176408040267568067e-01
1.237019291937340032e-01,7.212750573274071542e-01,0.000000000000000000e+00,4.946832689837249442e-02,7.000763341169391474e-01
-1.106997977650775455e-02,8.353787621336037361e-01,0.000000000000000000e+00,-4.452149420853514922e-02,7.303870379749050068e-01
-7.619297622262277692e-02,6.627163757530850630e-01,0.000000000000000000e+00,-1.183344363346511136e-01,7.168979602041716248e-01
-2.027339578156122923e-01,6.668896095417145009e-01,0.000000000000000000e+00,-1.719597070421027551e-01,6.686336109479734668e-01
-9.452131079588736717e-02,5.421381482194609358e-01,0.000000000000000000e+00,-2.064399989410965752e-01,5.947150438774341241e-01
-2.004850461426894437e-01,4.134516486083241182e-01,0.000000000000000000e+00,-2.236170209718548185e-01,5.038664610854522996e-01
-2.237274005089672502e-01,3.738842226493446219e-01,0.000000000000000000e+00,-2.258837635756923423e-01,4.040362322713870191e-01
-3.148750231561504576e-01,3.317674880701989570e-01,0.000000000000000000e+00,-2.159551210893188855e-01,3.021303279589886426e-01
-1.035354299493838753e-01,2.472108180499868468e-01,0.000000000000000000e+00,-1.966653301637306117e-01,2.038506916788972723e-01
-1.990295151650993966e-01,8.645914089005501957e-02,0.000000000000000000e+00,-1.707976791777901793e-01,1.136270307740134961e-01
-1.587927232927610899e-01,-4.724344267816285581e-02,0.000000000000000000e+00,-1.409492264020700270e-01,3.462782882886074332e-02
-2.623417128582326840e-02,-6.587690122362312162e-02,0.000000000000000000e+00,-1.094309211342435195e-01,-3.116504594597460306e-02
5.457196713506574925e-02,-1.277258416940170171e-01,0.000000000000000000e+00,-7.820160323230813948e-02,-8.283410543425577532e-02
-1.189967823338637931e-01,-1.730213410536411422e-01,0.000000000000000000e+00,-4.883288165234439537e-02,-1.203717949294719203e-01
-3.233513435872585606e-02,-1.924591894314935658e-01,0.000000000000000000e+00,-2.250085421105788366e-02,-1.445079992587675888e-01
6.585522571783865298e-02,-5.055868655459842820e-02,0.000000000000000000e+00,-2.307297613061884277e-17,-1.565319146802983674e-01
-4.037965086937524845e-02,-1.983940132030518333e-01,0.000000000000000000e+00,0.000000000000000000e+00,-1.581186345029846341e-01
-2.448137686740033819e-02,-1.177972989164713102e-01,0.000000000000000000e+00,0.000000000000000000e+00,-1.511685847625232060e-01
-3.121790283914491898e-02,-1.180331046868320077e-01,0.000000000000000000e+00,0.000000000000000000e+00,-1.376657311146114171e-01
-7.776084209076258857e-02,9.983350048747022254e-03,0.000000000000000000e+00,0.000000000000000000e+00,-1.195583754244531199e-01
8.698858477793515107e-03,-6.748583269679482577e-02,0.000000000000000000e+00,0.000000000000000000e+00,-9.866445848144901609e-02
-5.763167640479704285e-02,-6.987876442003169986e-02,0.000000000000000000e+00,0.000000000000000000e+00,-7.660164479397045534e-02
3.673833415311489325e-02,-1.237532811295673218e-02,0.000000000000000000e+00,0.000000000000000000e+00,-5.474112226261569625e-02
-2.529808048651108199e-02,-4.457694542901007029e-03,0.000000000000000000e+00,0.000000000000000000e+00,-3.418301715664107121e-02
2.069805532233983877e-02,4.081411269933159919e-02,0.000000000000000000e+00,0.000000000000000000e+00,-1.575059794774051614e-02
-1.296522223454250611e-01,2.757059992621562275e-02,0.000000000000000000e+00,0.000000000000000000e+00,-1.615108329143318994e-17
2.368998643132904335e-03,-1.008717509414387009e-02,0.000000000000000000e+00,0.000000000000000000e+00,0.000000000000000000e+00
-2.013565114274257217e-02,6.385457960515542042e-02,0.000000000000000000e+00,0.000000000000000000e+00,0.000000000000000000e+00
-3.295586059109447546e-02,9.655574249184319113e-03,0.000000000000000000e+00,0.000000000000000000e+00,0.000000000000000000e+00
-1.481984161410818471e-02,8.315128527126972036e-02,0.000000000000000000e+00,0.000000000000000000e+00,0.000000000000000000e+00
-3.685388241657907432e-02,-2.095814549265903604e-02,0.000000000000000000e+00,0.000000000000000000e+00,0.000000000000000000e+00
2.534792853652828235e-02,-8.168940539526170497e-02,0.000000000000000000e+00,0.000000000000000000e+00,0.000000000000000000e+00
-4.846006904412017424e-02,-5.824162446687902728e-02,0.000000000000000000e+00,0.000000000000000000e+00,0.000000000000000000e+00
7.977249210960642156e-02,4.741871818706334431e-03,0.000000000000000000e+00,0.000000000000000000e+00,0.000000000000000000e+00
-1.385473857229344019e-02,1.169007187762509219e-02,0.000000000000000000e+00,0.000000000000000000e+00,0.000000000000000000e+00
1.492012463181985327e-02,-1.502201643721107031e-02,0.000000000000000000e+00,0.000000000000000000e+00,0.000000000000000000e+00
8.361120947118512448e-02,-4.371221266244412068e-02,0.000000000000000000e+00,0.000000000000000000e+00,0.000000000000000000e+00
-5.546214302109703231e-02,2.512889750152083601e-02,0.000000000000000000e+00,0.000000000000000000e+00,0.000000000000000000e+00
4.605168773442329389e-02,4.028773445977254508e-03,0.000000000000000000e+00,0.000000000000000000e+00,0.000000000000000000e+00
4.068868091765996502e-03,-3.355047379554210174e-02,3.246994692046833997e-02,0.000000000000000000e+00,3.246994692046833997e-02
-4.517440037066008940e-02,1.087568807702353479e-01,1.228425425379335301e-01,0.000000000000000000e+00,1.228425425379335301e-01
2.657063027975052269e-03,1.682900915142964138e-01,2.511499434787585749e-01,0.000000000000000000e+00,2.511499434787585749e-01
-5.376498878806512671e-02,3.408910090287396999e-01,3.877601063757321609e-01,0.000000000000000000e+00,3.877601063757321609e-01
7.343447099472616424e-02,5.000930636130703766e-01,4.982922465033349235e-01,0.000000000000000000e+00,4.982922465033349235e-01
-2.190275721727036676e-02,6.230933413003867383e-01,5.494639959930345263e-01,0.000000000000000000e+00,5.494639959930345263e-01
4.593951390058434447e-02,5.124113499862057441e-01,5.150067374711921886e-01,0.000000000000000000e+00,5.150067374711921886e-01
-3.795662561711526245e-02,4.560474878397817733e-01,3.807579144296589502e-01,0.000000000000000000e+00,3.807579144296589502e-01
1.714769553642867678e-02,1.089742699600632636e-01,1.481351312526606456e-01,0.000000000000000000e+00,1.481351312526606456e-01
3.824064364250989723e-02,-1.931096100292642725e-01,-1.645945902807337824e-01,0.000000000000000000e+00,-1.645945902807337824e-01
5.649548321087208280e-02,-5.154123306360073320e-01,-4.283526537333661732e-01,0.000000000000000000e+00,-4.283526537333661732e-01
1.553593280763701512e-02,-5.257563023529154833e-01,-5.885791285385050253e-01,0.000000000000000000e+00,-5.885791285385050253e-01
-1.808114078757209336e-02,-6.159789610405123073e-01,-6.410413286585400217e-01,0.000000000000000000e+00,-6.410413286585400217e-01
1.658770021159386432e-01,-4.868132538782362628e-01,-5.979506958040018416e-01,0.000000000000000000e+00,-5.979506958040018416e-01
1.462557814773196921e-02,-4.612211189988416615e-01,-4.847001329696652427e-01,0.000000000000000000e+00,-4.847001329696652427e-01
-2.038021560541355189e-03,-3.689555915422671473e-01,-3.348665913050115073e-01,0.000000000000000000e+00,-3.348665913050115073e-01
2.117914826926401567e-02,-1.730256613649652497e-01,-1.842638138069006837e-01,0.000000000000000000e+00,-1.842638138069006837e-01
3.126796800211383703e-02,1.470779314146342109e-02,-6.493989384093673545e-02,0.000000000000000000e+00,-6.493989384093673545e-02
3.545047020515743746e-02,8.226044464692706254e-03,-2.449293598294705921e-17,0.000000000000000000e+00,-2.449293598294705921e-17
5.848151072786678117e-02,-5.773834596857636836e-02,0.000000000000000000e+00,0.000000000000000000e+00,0.000000000000000000e+00
8.858820829960119617e-03,-4.760151924655874230e-03,0.000000000000000000e+00,0.000000000000000000e+00,0.000000000000000000e+00
9.676551007820879610e-03,-3.840154487029515118e-02,0.000000000000000000e+00,0.000000000000000000e+00,0.000000000000000000e+00
1.147558908619718543e-01,-3.495303171666507697e-02,0.000000000000000000e+00,0.000000000000000000e+00,0.000000000000000000e+00
-3.947942538959306469e-02,6.727843369104118641e-03,0.000000000000000000e+00,0.000000000000000000e+00,0.000000000000000000e+00
-3.422442436665595195e-02,-3.296202531432582822e-02,0.000000000000000000e+00,0.000000000000000000e+00,0.000000000000000000e+00
-3.168119155265932546e-02,1.415097479136205594e-02,0.000000000000000000e+00,0.000000000000000000e+00,0.000000000000000000e+00
-3.131512728322803640e-02,7.652722081838980728e-02,0.000000000000000000e+00,0.000000000000000000e+00,0.000000000000000000e+00
2.565850673720457276e-02,-2.938505141455297065e-02,0.000000000000000000e+00,0.000000000000000000e+00,0.000000000000000000e+00
-3.217415130286789549e-02,7.561152990020443554e-02,0.000000000000000000e+00,0.000000000000000000e+00,0.000000000000000000e+00
8.812642473381564201e-02,9.428039364330214472e-03,0.000000000000000000e+00,0.000000000000000000e+00,0.000000000000000000e+00
1.304697940361823627e-02,-3.814830536800878358e-02,0.000000000000000000e+00,0.000000000000000000e+00,0.000000000000000000e+00
7.487694719837928448e-02,1.378772383447929295e-02,0.000000000000000000e+00,0.000000000000000000e+00,0.000000000000000000e+00
7.340182491242588925e-02,-1.937340398177686204e-02,0.000000000000000000e+00,0.000000000000000000e+00,0.000000000000000000e+00
-7.524975898731696422e-02,-3.070172563589781967e-02,0.000000000000000000e+00,0.000000000000000000e+00,0.000000000000000000e+00
1.827894718360454154e-02,6.492797422876087077e-02,0.000000000000000000e+00,0.000000000000000000e+00,0.000000000000000000e+00
5.986686573133914030e-02,-1.404187611415017300e-01,0.000000000000000000e+00,0.000000000000000000e+00,0.000000000000000000e+00
-9.154696415323261560e-02,-2.493696624852238808e-02,0.000000000000000000e+00,0.000000000000000000e+00,0.000000000000000000e+00
8.837225941851937355e-03,7.853154133573353457e-02,0.000000000000000000e+00,0.000000000000000000e+00,0.000000000000000000e+00
-3.755677686282173078e-02,6.635545035045332940e-02,0.000000000000000000e+00,0.000000000000000000e+00,0.000000000000000000e+00
-2.565289716240211695e-02,-1.077958706249535770e-01,0.000000000000000000e+00,0.000000000000000000e+00,0.000000000000000000e+00
-4.858067085411697100e-02,1.591157786034200564e-02,0.000000000000000000e+00,0.000000000000000000e+00,0.000000000000000000e+00
-7.330751965024619177e-02,6.727143912823406804e-03,0.000000000000000000e+00,0.000000000000000000e+00,0.000000000000000000e+00
3.258125817127456580e-02,-2.197589904242022718e-02,0.000000000000000000e+00,0.000000000000000000e+00,0.000000000000000000e+00
-5.481731522378557875e-02,7.886351132392455110e-02,0.000000000000000000e+00,0.000000000000000000e+00,0.000000000000000000e+00
5.251722395970537249e-02,7.824490857964927493e-02,0.000000000000000000e+00,0.000000000000000000e+00,0.000000000000000000e+00
3.767300912320884626e-02,6.000067563601529930e-02,0.000000000000000000e+00,0.000000000000000000e+00,0.000000000000000000e+00
-3.638672160069621186e-02,1.642432118532741181e-02,0.000000000000000000e+00,0.000000000000000000e+00,0.000000000000000000e+00
-1.794715332511211819e-02,-7.758442678985094654e-02,0.000000000000000000e+00,0.000000000000000000e+00,0.000000000000000000e+00
4.667227564468930806e-02,-6.442788012381662176e-03,0.000000000000000000e+00,0.000000000000000000e+00,0.000000000000000000e+00
1.930192023938688203e-02,1.954962211759785073e-02,0.000000000000000000e+00,0.000000000000000000e+00,0.000000000000000000e+00
4.876833568752572678e-02,-2.973391208364535923e-02,0.000000000000000000e+00,0.000000000000000000e+00,0.000000000000000000e+00
6.746437235490396374e-03,1.453398555362617195e-02,0.000000000000000000e+00,0.000000000000000000e+00,0.000000000000000000e+00
2.792013837253409445e-02,-3.984728551891426190e-02,0.000000000000000000e+00,0.000000000000000000e+00,0.000000000000000000e+00
-3.504222287171300521e-02,1.033694763584792203e-02,0.000000000000000000e+00,0.000000000000000000e+00,0.000000000000000000e+00
-5.348131578297488781e-03,-1.117272712712126803e-01,0.000000000000000000e+00,0.000000000000000000e+00,0.000000000000000000e+00
-5.409960191052442385e-02,-4.423824563570136897e-02,0.000000000000000000e+00,0.000000000000000000e+00,0.000000000000000000e+00
-8.067343635001274910e-03,-5.412897439410845751e-02,0.000000000000000000e+00,0.000000000000000000e+00,0.000000000000000000e+00
-5.428566404584314609e-02,-1.590783670022577912e-03,0.000000000000000000e+00,0.000000000000000000e+00,0.000000000000000000e+00
6.769489177086839005e-02,-5.095532934368932759e-02,0.000000000000000000e+00,0.000000000000000000e+00,0.000000000000000000e+00
-4.148292047338785621e-02,-2.180534930246443362e-02,0.000000000000000000e+00,0.000000000000000000e+00,0.000000000000000000e+00
-4.130651073534327006e-02,-1.168544403198358214e-02,0.000000000000000000e+00,0.000000000000000000e+00,0.000000000000000000e+00
5.918974706500649413e-02,6.207496228729705856e-02,0.000000000000000000e+00,0.000000000000000000e+00,0.000000000000000000e+00
5.649651990376741706e-02,9.468503089518048865e-02,0.000000000000000000e+00,0.000000000000000000e+00,0.000000000000000000e+00
-1.011386068853004083e-02,-7.728295955079690638e-02,0.000000000000000000e+00,0.000000000000000000e+00,0.000000000000000000e+00
-3.959259151157288464e-02,-9.086140265960390705e-02,0.000000000000000000e+00,0.000000000000000000e+00,0.000000000000000000e+00
5.299084744281760267e-02,2.599124114875435779e-02,0.000000000000000000e+00,0.000000000000000000e+00,0.000000000000000000e+00
-6.897379403272366205e-02,-5.240165056819827243e-03,0.000000000000000000e+00,0.000000000000000000e+00,0.000000000000000000e+00
1.160729298675742815e-01,-2.215714730868736937e-02,0.000000000000000000e+00,0.000000000000000000e+00,0.000000000000000000e+00
1.727853159653290616e-02,-3.397084202181779172e-02,0.000000000000000000e+00,0.000000000000000000e+00,0.000000000000000000e+00
-2.415436519536507190e-02,-5.838869319504938482e-02,0.000000000000000000e+00,0.000000000000000000e+00,0.000000000000000000e+00
8.724218332957109356e-02,-6.388465951624658357e-02,0.000000000000000000e+00,0.000000000000000000e+00,0.000000000000000000e+00
-1.393600811108585552e-02,1.730861372817867061e-03,0.000000000000000000e+00,0.000000000000000000e+00,0.000000000000000000e+00
3.830386612497256593e-02,1.449979437691979040e-02,0.000000000000000000e+00,0.000000000000000000e+00,0.000000000000000000e+00
-5.503197091672299562e-02,1.054609100719859083e-01,0.000000000000000000e+00,0.000000000000000000e+00,0.000000000000000000e+00
6.146005236437346655e-03,5.130927907873043120e-02,0.000000000000000000e+00,0.000000000000000000e+00,0.000000000000000000e+00
-6.212393246720598200e-02,2.662749544885389952e-02,0.000000000000000000e+00,0.000000000000000000e+00,0.000000000000000000e+00
7.936997498927041150e-02,-6.325211811649014693e-02,0.000000000000000000e+00,0.000000000000000000e+00,0.000000000000000000e+00
-3.034230454331851567e-02,-6.787330075245708028e-02,0.000000000000000000e+00,0.000000000000000000e+00,0.000000000000000000e+00
-7.918955540456407149e-03,-3.035557403776413879e-02,0.000000000000000000e+00,0.000000000000000000e+00,0.000000000000000000e+00
1.698332351614948929e-02,-8.485281117780414661e-02,0.000000000000000000e+00,0.000000000000000000e+00,0.000000000000000000e+00
-2.656269192405136953e-02,2.836473879658148525e-02,0.000000000000000000e+00,0.000000000000000000e+00,0.000000000000000000e+00
-4.528101952787842027e-02,8.891616242004409323e-03,0.000000000000000000e+00,0.000000000000000000e+00,0.000000000000000000e+00
-8.400214613680312414e-02,4.458084192556112380e-02,0.000000000000000000e+00,0.000000000000000000e+00,0.000000000000000000e+00
6.483665290998012753e-02,4.532904991350664159e-02,0.000000000000000000e+00,0.000000000000000000e+00,0.000000000000000000e+00
-1.116323310850841355e-01,-1.203153254126405024e-02,0.000000000000000000e+00,0.000000000000000000e+00,0.000000000000000000e+00
5.358058384049135814e-02,5.742611024231352584e-02,0.000000000000000000e+00,0.000000000000000000e+00,0.000000000000000000e+00
4.279286077284182033e-02,-7.246219409745160989e-02,0.000000000000000000e+00,0.000000000000000000e+00,0.000000000000000000e+00
-3.283444454872428558e-02,5.574931360558291887e-02,0.000000000000000000e+00,0.000000000000000000e+00,0.000000000000000000e+00
-8.681146101251176195e-02,6.067103535887045235e-02,0.000000000000000000e+00,0.000000000000000000e+00,0.000000000000000000e+00
-3.819448879529202534e-03,8.296838546516638324e-02,0.000000000000000000e+00,0.000000000000000000e+00,0.000000000000000000e+00
-6.355359669310958748e-02,-7.882917980284136553e-03,0.000000000000000000e+00,0.000000000000000000e+00,0.000000000000000000e+00
-4.131539565419781873e-02,-1.654699518478301452e-03,0.000000000000000000e+00,0.000000000000000000e+00,0.000000000000000000e+00
-3.340209619129956564e-02,1.015638522395132274e-03,0.000000000000000000e+00,0.000000000000000000e+00,0.000000000000000000e+00
-3.675189827672068615e-03,5.343779928048513622e-02,0.000000000000000000e+00,0.000000000000000000e+00,0.000000000000000000e+00
5.334496423387550396e-02,3.531479379304460625e-02,0.000000000000000000e+00,0.000000000000000000e+00,0.000000000000000000e+00
2.504228200653693670e-02,5.512701938613956409e-02,0.000000000000000000e+00,0.000000000000000000e+00,0.000000000000000000e+00
1.014448160920163391e-02,1.116978218243234316e-02,0.000000000000000000e+00,0.000000000000000000e+00,0.000000000000000000e+00
-2.034203073042354856e-02,1.737685078868246927e-02,0.000000000000000000e+00,0.000000000000000000e+00,0.000000000000000000e+00
-2.646297251912747839e-02,8.041549290051305809e-02,0.000000000000000000e+00,0.000000000000000000e+00,0.000000000000000000e+00
8.853537938269077923e-02,4.890733988514524982e-02,0.000000000000000000e+00,0.000000000000000000e+00,0.000000000000000000e+00
1.582527975760011571e-02,-4.112922683404148134e-03,0.000000000000000000e+00,0.000000000000000000e+00,0.000000000000000000e+00
-1.484283901052967959e-02,2.647198153727915726e-02,0.000000000000000000e+00,0.000000000000000000e+00,0.000000000000000000e+00
-1.212120564440599679e-02,5.707705496915346788e-02,0.000000000000000000e+00,0.000000000000000000e+00,0.000000000000000000e+00
5.216456308549127091e-02,-4.643472565493191040e-02,0.000000000000000000e+00,0.000000000000000000e+00,0.000000000000000000e+00
-8.179891838002743831e-02,-1.174149454488760541e-02,0.000000000000000000e+00,0.000000000000000000e+00,0.000000000000000000e+00
5.649248183814312846e-02,3.254381781525535894e-02,0.000000000000000000e+00,0.000000000000000000e+00,0.000000000000000000e+00
4.514369891321648280e-03,5.448511664601707327e-02,0.000000000000000000e+00,0.000000000000000000e+00,0.000000000000000000e+00
3.714805636305467534e-02,-4.467081781509236148e-03,0.000000000000000000e+00,0.000000000000000000e+00,0.000000000000000000e+00
2.163890349982128258e-02,9.337985979679827575e-02,3.246994692046833997e-02,0.000000000000000000e+00,3.246994692046833997e-02
-2.105648765063405231e-02,1.176013173311522275e-01,1.228425425379335301e-01,0.000000000000000000e+00,1.228425425379335301e-01
-4.817737788675680033e-02,3.135344957890519590e-01,2.511499434787585749e-01,0.000000000000000000e+00,2.511499434787585749e-01
2.627705250606528556e-02,5.020925691305304639e-01,3.877601063757321609e-01,0.000000000000000000e+00,3.877601063757321609e-01
6.669886750959318211e-02,5.251602135477106970e-01,4.982922465033349235e-01,0.000000000000000000e+00,4.982922465033349235e-01
1.047321720221532082e-02,5.852930362269114228e-01,5.494639959930345263e-01,0.000000000000000000e+00,5.494639959930345263e-01
-5.737616336393213529e-02,4.691445050169699149e-01,5.150067374711921886e-01,0.000000000000000000e+00,5.150067374711921886e-01
-4.645345975708893571e-02,4.669630870929688538e-01,3.807579144296589502e-01,0.000000000000000000e+00,3.807579144296589502e-01
6.987592951648201323e-02,2.193137170232533628e-01,1.481351312526606456e-01,0.000000000000000000e+00,1.481351312526606456e-01
1.131084803018853752e-02,-1.804718938060198008e-01,-1.645945902807337824e-01,0.000000000000000000e+00,-1.645945902807337824e-01
-1.299494650439156351e-01,-4.932306911074555988e-01,-4.283526537333661732e-01,0.000000000000000000e+00,-4.283526537333661732e-01
-7.727536364553405646e-02,-5.137798615273161396e-01,-5.885791285385050253e-01,0.000000000000000000e+00,-5.885791285385050253e-01
1.966964319430287642e-02,-5.239635697337861053e-01,-6.410413286585400217e-01,0.000000000000000000e+00,-6.410413286585400217e-01
2.584762651040458173e-02,-6.941452984904183943e-01,-5.979506958040018416e-01,0.000000000000000000e+00,-5.979506958040018416e-01
-1.258805102949952792e-01,-4.732577315579009625e-01,-4.847001329696652427e-01,0.000000000000000000e+00,-4.847001329696652427e-01
1.815650229006978561e-03,-3.419495282625178989e-01,-3.348665913050115073e-01,0.000000000000000000e+00,-3.348665913050115073e-01
5.433135668043980598e-02,-1.675704152295200977e-01,-1.842638138069006837e-01,0.000000000000000000e+00,-1.842638138069006837e-01
-4.119039181107697623e-02,-1.001718848450590948e-01,-6.493989384093673545e-02,0.000000000000000000e+00,-6.493989384093673545e-02
-6.974839760039723557e-02,3.678787685832140414e-02,-2.449293598294705921e-17,0.000000000000000000e+00,-2.449293598294705921e-17
2.237754266090788077e-02,1.100504727869322519e-01,0.000000000000000000e+00,0.000000000000000000e+00,0.000000000000000000e+00
2.670343260794362517e-02,-1.980151316701242101e-02,0.000000000000000000e+00,0.000000000000000000e+00,0.000000000000000000e+00
5.924602704708878398e-02,-1.767642745311790234e-02,0.000000000000000000e+00,0.000000000000000000e+00,0.000000000000000000e+00
-1.923624971943439094e-02,2.538970162256811922e-02,0.000000000000000000e+00,0.000000000000000000e+00,0.000000000000000000e+00
2.908183558386080725e-02,1.163166599393061079e-02,0.000000000000000000e+00,0.000000000000000000e+00,0.000000000000000000e+00
3.641835619381553896e-02,3.855220433176861916e-02,0.000000000000000000e+00,0.000000000000000000e+00,0.000000000000000000e+00
-3.813334481033480577e-02,-6.211894447566288641e-02,0.000000000000000000e+00,0.000000000000000000e+00,0.000000000000000000e+00
-1.465993267599564609e-01,7.221759955967403666e-03,0.000000000000000000e+00,0.000000000000000000e+00,0.000000000000000000e+00
-5.601122458885260391e-02,8.193021908247118124e-02,0.000000000000000000e+00,0.000000000000000000e+00,0.000000000000000000e+00
6.082283818087479664e-03,-1.428448546088687422e-03,0.000000000000000000e+00,0.000000000000000000e+00,0.000000000000000000e+00
-3.677716969417665210e-02,-1.360545357687075255e-02,0.000000000000000000e+00,0.000000000000000000e+00,0.000000000000000000e+00
9.470274338529477420e-02,3.246581196471488850e-02,0.000000000000000000e+00,0.000000000000000000e+00,0.000000000000000000e+00
8.006083019574755655e-03,2.058545840445702435e-02,0.000000000000000000e+00,0.000000000000000000e+00,0.000000000000000000e+00
-5.329057909497331158e-02,-3.354359715866030850e-02,0.000000000000000000e+00,0.000000000000000000e+00,0.000000000000000000e+00
8.493244488499607225e-02,-3.315653047796102149e-03,0.000000000000000000e+00,0.000000000000000000e+00,0.000000000000000000e+00
9.472662775615016406e-02,-5.631979739607352597e-02,0.000000000000000000e+00,0.000000000000000000e+00,0.000000000000000000e+00
-3.082917532538715071e-03,8.048180367086146467e-03,0.000000000000000000e+00,0.000000000000000000e+00,0.000000000000000000e+00
1.980151931920176578e-02,5.705756738731269234e-02,0.000000000000000000e+00,0.000000000000000000e+00,0.000000000000000000e+00
1.146887298393059196e-01,-4.843231423452573625e-02,0.000000000000000000e+00,0.000000000000000000e+00,0.000000000000000000e+00
-7.840074570596863857e-02,-8.165721778290110922e-02,0.000000000000000000e+00,0.000000000000000000e+00,0.000000000000000000e+00
2.179097353429926276e-02,-7.152104152667017323e-02,0.000000000000000000e+00,0.000000000000000000e+00,0.000000000000000000e+00
-6.731184605445896083e-05,-6.191920258792971143e-02,0.000000000000000000e+00,0.000000000000000000e+00,0.000000000000000000e+00
-4.536011673331619143e-02,6.154157854368757369e-02,0.000000000000000000e+00,0.000000000000000000e+00,0.000000000000000000e+00
4.044866316157527675e-02,-3.507252530741422625e-02,0.000000000000000000e+00,0.000000000000000000e+00,0.000000000000000000e+00
6.391543707671221500e-03,-5.129135124158045594e-02,0.000000000000000000e+00,0.000000000000000000e+00,0.000000000000000000e+00
9.128766313187718084e-02,1.968829712461878795e-02,0.000000000000000000e+00,0.000000000000000000e+00,0.000000000000000000e+00
5.236746169689259628e-02,4.528822853285985328e-02,0.000000000000000000e+00,0.000000000000000000e+00,0.000000000000000000e+00
-5.302755993857245775e-03,2.766672574738401891e-02,0.000000000000000000e+00,0.000000000000000000e+00,0.000000000000000000e+00
4.917435203135927385e-02,-1.897873520275375828e-02,0.000000000000000000e+00,0.000000000000000000e+00,0.000000000000000000e+00
-4.645925313778408172e-02,-4.611191990417836534e-02,0.000000000000000000e+00,0.000000000000000000e+00,0.000000000000000000e+00
1.531121185827110098e-01,6.169013403317515076e-02,0.000000000000000000e+00,0.000000000000000000e+00,0.000000000000000000e+00
3.035642157231535632e-02,-2.591274412273240901e-02,0.000000000000000000e+00,0.000000000000000000e+00,0.000000000000000000e+00
-3.444231452888706774e-02,-1.871595344052395804e-02,0.000000000000000000e+00,0.000000000000000000e+00,0.000000000000000000e+00
6.316815980027985777e-03,-1.615925957008436734e-02,0.000000000000000000e+00,0.000000000000000000e+00,0.000000000000000000e+00
-4.081864861056331423e-02,-7.135653525132884534e-02,0.000000000000000000e+00,0.000000000000000000e+00,0.000000000000000000e+00
6.281817771940172157e-02,2.261655067216555501e-02,0.000000000000000000e+00,0.000000000000000000e+00,0.000000000000000000e+00
-4.164668340646835581e-02,8.939132991619275215e-02,0.000000000000000000e+00,0.000000000000000000e+00,0.000000000000000000e+00
1.624521564636194002e-02,5.794803882327460853e-02,0.000000000000000000e+00,0.000000000000000000e+00,0.000000000000000000e+00
-9.246017012018470024e-03,2.147191818399360463e-02,0.000000000000000000e+00,0.000000000000000000e+00,0.000000000000000000e+00
-3.279210387333377635e-02,4.014721653940182128e-03,0.000000000000000000e+00,0.000000000000000000e+00,0.000000000000000000e+00
-5.581742324039826869e-03,2.378509603316233956e-02,0.000000000000000000e+00,0.000000000000000000e+00,0.000000000000000000e+00
6.845979711736599471e-02,-1.228080525578646547e-02,0.000000000000000000e+00,0.000000000000000000e+00,0.000000000000000000e+00
3.448295604229301148e-01,-3.776664623619948452e-02,0.000000000000000000e+00,3.869467923798433628e-01,0.000000000000000000e+00
6.825017890413789257e-01,-1.335922324191235726e-03,0.000000000000000000e+00,6.802203445276286953e-01,0.000000000000000000e+00
8.274701267783365344e-01,3.484593075620753128e-02,0.000000000000000000e+00,8.823440057525097080e-01,0.000000000000000000e+00
8.902937024147442591e-01,1.152732085044040448e-02,0.000000000000000000e+00,1.000109048738484496e+00,0.000000000000000000e+00
1.120020453186522547e+00,2.862899532962717708e-02,0.000000000000000000e+00,1.043410054249864327e+00,0.000000000000000000e+00
9.147708999866148716e-01,-5.231863678945300467e-02,0.000000000000000000e+00,1.024139943148816734e+00,0.000000000000000000e+00
9.309555052975601042e-01,-1.146737948184179540e-01,0.000000000000000000e+00,9.551908727828193335e-01,0.000000000000000000e+00
7.439698479036207512e-01,3.989996950804809706e-02,0.000000000000000000e+00,8.495929198249059233e-01,0.000000000000000000e+00
7.548653552189521498e-01,-6.338126944597419210e-02,0.000000000000000000e+00,7.198092301220747613e-01,0.000000000000000000e+00
5.080006935848122573e-01,-7.179492668397118027e-02,0.000000000000000000e+00,5.771946175305529003e-01,0.000000000000000000e+00
4.659472112150518375e-01,2.683827875790795736e-01,0.000000000000000000e+00,4.316147542271266402e-01,2.708627546658903262e-01
3.654417911717776635e-01,5.139378526548424864e-01,0.000000000000000000e+00,2.912152738269961350e-01,4.761542411693400756e-01
1.079180975605982529e-01,5.181254330783376938e-01,0.000000000000000000e+00,1.623243296771621491e-01,6.176408040267568067e-01
2.809269769793010241e-03,7.366862378655782972e-01,0.000000000000000000e+00,4.946832689837249442e-02,7.000763341169391474e-01
5.423042115793001022e-02,7.574493289017180109e-01,0.000000000000000000e+00,-4.452149420853514922e-02,7.303870379749050068e-01
-2.077122357740128211e-01,7.435461198941528682e-01,0.000000000000000000e+00,-1.183344363346511136e-01,7.168979602041716248e-01
-6.477901855716236557e-02,6.356142043106606243e-01,0.000000000000000000e+00,-1.719597070421027551e-01,6.686336109479734668e-01
-2.483064880456090362e-01,6.018614646893336584e-01,0.000000000000000000e+00,-2.064399989410965752e-01,5.947150438774341241e-01
-2.409391043415650691e-01,4.304753574172444641e-01,0.000000000000000000e+00,-2.236170209718548185e-01,5.038664610854522996e-01
-1.978138167929846258e-01,3.692775421359771326e-01,0.000000000000000000e+00,-2.258837635756923423e-01,4.040362322713870191e-01
-2.068093178277884692e-01,3.159700959249381325e-01,0.000000000000000000e+00,-2.159551210893188855e-01,3.021303279589886426e-01
-1.994677673376903937e-01,1.058199945492559468e-01,0.000000000000000000e+00,-1.966653301637306117e-01,2.038506916788972723e-01
-2.059440942281472731e-01,5.123290176952138841e-02,0.000000000000000000e+00,-1.707976791777901793e-01,1.136270307740134961e-01
-1.086227925186683124e-01,7.413334695293308241e-02,0.000000000000000000e+00,-1.409492264020700270e-01,3.462782882886074332e-02
-1.335139477643221828e-01,2.488002012323420678e-02,0.000000000000000000e+00,-1.094309211342435195e-01,-3.116504594597460306e-02
-1.402827794865946776e-01,-1.160750814246119533e-01,0.000000000000000000e+00,-7.820160323230813948e-02,-8.283410543425577532e-02
7.174109744961756907e-03,-3.261173801434030795e-02,0.000000000000000000e+00,-4.883288165234439537e-02,-1.203717949294719203e-01
5.140914885003373958e-02,-6.643319693744757781e-02,0.000000000000000000e+00,-2.250085421105788366e-02,-1.445079992587675888e-01
6.037305755737942120e-02,-1.879294207413833850e-01,0.000000000000000000e+00,-2.307297613061884277e-17,-1.565319146802983674e-01
4.978662192872410769e-03,-5.018457112656896091e-02,0.000000000000000000e+00,0.000000000000000000e+00,-1.581186345029846341e-01
2.147988132014001100e-02,-2.021457319002007424e-01,0.000000000000000000e+00,0.000000000000000000e+00,-1.511685847625232060e-01
4.386691765047187608e-02,-1.443837969465111837e-01,0.000000000000000000e+00,0.000000000000000000e+00,-1.376657311146114171e-01
-1.904120419653224094e-02,-1.188167838016789546e-01,0.000000000000000000e+00,0.000000000000000000e+00,-1.195583754244531199e-01
2.679890884552957320e-02,-4.900150512024957494e-02,0.000000000000000000e+00,0.000000000000000000e+00,-9.866445848144901609e-02
-6.030479579560645009e-02,-1.081301405957779682e-01,0.000000000000000000e+00,0.000000000000000000e+00,-7.660164479397045534e-02
3.494402283246344360e-02,-1.111349465872773362e-02,0.000000000000000000e+00,0.000000000000000000e+00,-5.474112226261569625e-02
1.909445756219654844e-02,-1.831525836431289328e-02,0.000000000000000000e+00,0.000000000000000000e+00,-3.418301715664107121e-02
1.927895163901672052e-02,-4.961670788666617399e-02,0.000000000000000000e+00,0.000000000000000000e+00,-1.575059794774051614e-02
-7.365174987489750413e-02,1.573687304566470310e-02,0.000000000000000000e+00,0.000000000000000000e+00,-1.615108329143318994e-17
6.224697517578255124e-02,4.766020624310879361e-02,0.000000000000000000e+00,0.000000000000000000e+00,0.000000000000000000e+00
-9.908225474582499359e-02,7.419718751462626993e-02,0.000000000000000000e+00,0.000000000000000000e+00,0.000000000000000000e+00
-6.352821654218203731e-03,1.014902729271050241e-01,0.000000000000000000e+00,0.000000000000000000e+00,0.000000000000000000e+00
1.992797744523414766e-02,6.996614930516968645e-02,0.000000000000000000e+00,0.000000000000000000e+00,0.000000000000000000e+00
1.240677462565654976e-02,4.963664529154301203e-02,0.000000000000000000e+00,0.000000000000000000e+00,0.000000000000000000e+00
-6.352999100056401505e-02,4.343739852942684471e-02,0.000000000000000000e+00,0.000000000000000000e+00,0.000000000000000000e+00
1.026166377744234526e-01,1.106879547313912616e-02,0.000000000000000000e+00,0.000000000000000000e+00,0.000000000000000000e+00
-8.179915070555106305e-02,4.029241007914304701e-02,0.000000000000000000e+00,0.000000000000000000e+00,0.000000000000000000e+00
8.110645164730109768e-02,1.040419660027259302e-02,0.000000000000000000e+00,0.000000000000000000e+00,0.000000000000000000e+00
-1.100434913056728414e-01,-4.585448180789215150e-02,0.000000000000000000e+00,0.000000000000000000e+00,0.000000000000000000e+00
-7.824328559737925293e-02,-4.637847838193357613e-05,0.000000000000000000e+00,0.000000000000000000e+00,0.000000000000000000e+00
-8.832127273260057324e-03,-1.551972100593001797e-04,0.000000000000000000e+00,0.000000000000000000e+00,0.000000000000000000e+00
-5.583380209412835971e-02,3.225460285471489635e-02,0.000000000000000000e+00,0.000000000000000000e+00,0.000000000000000000e+00
3.191160125075664239e-02,2.533811036955611223e-05,0.000000000000000000e+00,0.000000000000000000e+00,0.000000000000000000e+00
3.551010331942518888e-02,2.997581584694428147e-02,0.000000000000000000e+00,0.000000000000000000e+00,0.000000000000000000e+00
5.077148557753237423e-02,5.494200224146714856e-02,0.000000000000000000e+00,0.000000000000000000e+00,0.000000000000000000e+00
-3.388406197816504900e-02,-7.320634880158724545e-02,0.000000000000000000e+00,0.000000000000000000e+00,0.000000000000000000e+00
3.826989730697781533e-02,5.159696623158585571e-02,0.000000000000000000e+00,0.000000000000000000e+00,0.000000000000000000e+00
9.836500098358223754e-02,6.044847636176341882e-02,0.000000000000000000e+00,0.000000000000000000e+00,0.000000000000000000e+00
6.421068579530544995e-02,6.072495041371803182e-02,0.000000000000000000e+00,0.000000000000000000e+00,0.000000000000000000e+00
-7.667600484143420603e-02,4.754899216373419113e-02,0.000000000000000000e+00,0.000000000000000000e+00,0.000000000000000000e+00
8.219699481518009943e-02,4.937675607326051305e-03,0.000000000000000000e+00,0.000000000000000000e+00,0.000000000000000000e+00
5.150061945728789253e-02,7.423522243983236846e-02,0.000000000000000000e+00,0.000000000000000000e+00,0.000000000000000000e+00
-3.282531620571052522e-02,5.438309261907145475e-02,0.000000000000000000e+00,0.000000000000000000e+00,0.000000000000000000e+00
4.002323870825934271e-02,1.649956089055971617e-02,0.000000000000000000e+00,0.000000000000000000e+00,0.000000000000000000e+00
-4.873996409394837359e-02,-9.110664727860119270e-04,0.000000000000000000e+00,0.000000000000000000e+00,0.000000000000000000e+00
5.359582254638443205e-02,-3.782452952938855639e-02,0.000000000000000000e+00,0.000000000000000000e+00,0.000000000000000000e+00
1.345797202372017200e-02,-5.663213657705429283e-02,0.000000000000000000e+00,0.000000000000000000e+00,0.000000000000000000e+00
-6.936743253416725874e-02,-2.262327931287448635e-02,0.000000000000000000e+00,0.000000000000000000e+00,0.000000000000000000e+00
-1.481393728971055201e-01,1.034413969722480370e-01,0.000000000000000000e+00,0.000000000000000000e+00,0.000000000000000000e+00
7.779067095261284724e-03,4.223298693033503137e-02,0.000000000000000000e+00,0.000000000000000000e+00,0.000000000000000000e+00
1.646724950396129261e-02,1.927881300166625622e-02,0.000000000000000000e+00,0.000000000000000000e+00,0.000000000000000000e+00
-5.151193839562739213e-02,3.440742217329076369e-02,0.000000000000000000e+00,0.000000000000000000e+00,0.000000000000000000e+00
-8.978133526294390654e-02,-1.160554821450727192e-01,0.000000000000000000e+00,0.000000000000000000e+00,0.000000000000000000e+00
5.970758513596906812e-03,2.909712563642022007e-02,0.000000000000000000e+00,0.000000000000000000e+00,0.000000000000000000e+00
1.016756927558433721e-01,-5.388836852758854996e-03,0.000000000000000000e+00,0.000000000000000000e+00,0.000000000000000000e+00
-3.715296093337996930e-02,4.021566123409910792e-02,0.000000000000000000e+00,0.000000000000000000e+00,0.000000000000000000e+00
-6.505107702833477779e-02,-1.828349802939464863e-02,0.000000000000000000e+00,0.000000000000000000e+00,0.000000000000000000e+00
-5.952550257229480279e-02,-3.225777505400657247e-02,0.000000000000000000e+00,0.000000000000000000e+00,0.000000000000000000e+00
1.967155288361248019e-02,4.647576951781223764e-02,0.000000000000000000e+00,0.000000000000000000e+00,0.000000000000000000e+00
7.086893982009009885e-02,-2.145678587089257933e-02,0.000000000000000000e+00,0.000000000000000000e+00,0.000000000000000000e+00
1.002505865219257067e-02,3.821652209854698584e-02,0.000000000000000000e+00,0.000000000000000000e+00,0.000000000000000000e+00
-5.140498296131153222e-02,4.618936804560307835e-02,3.246994692046833997e-02,0.000000000000000000e+00,3.246994692046833997e-02
3.990251209861993276e-02,1.555108259236365753e-01,1.228425425379335301e-01,0.000000000000000000e+00,1.228425425379335301e-01
-5.060136741141606914e-02,3.001139532892457273e-01,2.511499434787585749e-01,0.000000000000000000e+00,2.511499434787585749e-01
2.716482384672480599e-02,4.037470975027809272e-01,3.877601063757321609e-01,0.000000000000000000e+00,3.877601063757321609e-01
-1.579947288682125028e-02,4.923227108970733013e-01,4.982922465033349235e-01,0.000000000000000000e+00,4.982922465033349235e-01
3.212466316259754429e-02,6.017088909293570875e-01,5.494639959930345263e-01,0.000000000000000000e+00,5.494639959930345263e-01
1.873645194992409977e-03,5.715923246462630836e-01,5.150067374711921886e-01,0.000000000000000000e+00,5.150067374711921886e-01
4.379824389488513187e-02,3.373220400437500488e-01,3.807579144296589502e-01,0.000000000000000000e+00,3.807579144296589502e-01
3.852034093558519279e-02,1.468544019932723765e-01,1.481351312526606456e-01,0.000000000000000000e+00,1.481351312526606456e-01
-8.323346245361984766e-03,-2.353354827936089411e-01,-1.645945902807337824e-01,0.000000000000000000e+00,-1.645945902807337824e-01
-7.152720823888190915e-02,-3.967044301969233633e-01,-4.283526537333661732e-01,0.000000000000000000e+00,-4.283526537333661732e-01
-4.441500492445741438e-02,-6.178498072044950051e-01,-5.885791285385050253e-01,0.000000000000000000e+00,-5.885791285385050253e-01
-7.805867506477703888e-02,-6.318102456236563969e-01,-6.410413286585400217e-01,0.000000000000000000e+00,-6.410413286585400217e-01
8.072182656464788053e-02,-6.247800370116631807e-01,-5.979506958040018416e-01,0.000000000000000000e+00,-5.979506958040018416e-01
-5.239954487785530163e-02,-4.276486066301128375e-01,-4.847001329696652427e-01,0.000000000000000000e+00,-4.847001329696652427e-01
-6.041902581782507275e-02,-3.821821578426404242e-01,-3.348665913050115073e-01,0.000000000000000000e+00,-3.348665913050115073e-01
-9.813285779770175576e-02,-1.458690619139858535e-01,-1.842638138069006837e-01,0.000000000000000000e+00,-1.842638138069006837e-01
4.574566344459577577e-02,-7.493964848074824436e-02,-6.493989384093673545e-02,0.000000000000000000e+00,-6.493989384093673545e-02
-3.799654897270988985e-02,-2.249673647272366558e-02,-2.449293598294705921e-17,0.000000000000000000e+00,-2.449293598294705921e-17
5.458056540245779945e-04,3.020167413601648754e-02,0.000000000000000000e+00,0.000000000000000000e+00,0.000000000000000000e+00
3.206065649179104526e-02,5.529575380966261777e-02,0.000000000000000000e+00,0.000000000000000000e+00,0.000000000000000000e+00
-2.100232676718379737e-03,2.368523020949560298e-02,0.000000000000000000e+00,0.000000000000000000e+00,0.000000000000000000e+00
-1.792546831836995189e-02,-1.885447186515515697e-02,0.000000000000000000e+00,0.000000000000000000e+00,0.000000000000000000e+00
-8.152188502676022130e-02,3.014914621441508111e-02,0.000000000000000000e+00,0.000000000000000000e+00,0.000000000000000000e+00
4.686685453389116685e-02,2.165059969348530691e-02,0.000000000000000000e+00,0.000000000000000000e+00,0.000000000000000000e+00
-6.602984367543161814e-02,-6.055901714442360473e-02,0.000000000000000000e+00,0.000000000000000000e+00,0.000000000000000000e+00
-2.605786810331317798e-03,-4.663852673964091061e-02,0.000000000000000000e+00,0.000000000000000000e+00,0.000000000000000000e+00
8.632441965985592977e-03,-1.343361715717787397e-01,0.000000000000000000e+00,0.000000000000000000e+00,0.000000000000000000e+00
8.607102176665905324e-02,1.328456757100398428e-02,0.000000000000000000e+00,0.000000000000000000e+00,0.000000000000000000e+00
1.181287961114393849e-03,-2.109134545738736849e-02,0.000000000000000000e+00,0.000000000000000000e+00,0.000000000000000000e+00
4.832147844959090027e-02,3.449413281283202765e-02,0.000000000000000000e+00,0.000000000000000000e+00,0.000000000000000000e+00
-7.101337999777829202e-02,5.589734942422398822e-02,0.000000000000000000e+00,0.000000000000000000e+00,0.000000000000000000e+00
-5.709991978282810861e-03,6.807568776144037881e-02,0.000000000000000000e+00,0.000000000000000000e+00,0.000000000000000000e+00
5.465359262837619220e-03,6.143231541475117213e-03,0.000000000000000000e+00,0.000000000000000000e+00,0.000000000000000000e+00
-2.863061790425275310e-02,-2.719225762056058995e-02,0.000000000000000000e+00,0.000000000000000000e+00,0.000000000000000000e+00
-7.921098673977494675e-02,8.671361821979940709e-02,0.000000000000000000e+00,0.000000000000000000e+00,0.000000000000000000e+00
-4.364559790065800082e-02,8.207393059594435269e-02,0.000000000000000000e+00,0.000000000000000000e+00,0.000000000000000000e+00
-5.070056851184923108e-02,4.737915931910839651e-02,0.000000000000000000e+00,0.000000000000000000e+00,0.000000000000000000e+00
2.190607581317911834e-02,-3.919178896311667493e-02,0.000000000000000000e+00,0.000000000000000000e+00,0.000000000000000000e+00
-9.303240123543841944e-02,-2.292264457136086037e-02,0.000000000000000000e+00,0.000000000000000000e+00,0.000000000000000000e+00
-5.071376128431670516e-02,1.251019311362949608e-04,0.000000000000000000e+00,0.000000000000000000e+00,0.000000000000000000e+00
2.909259239693294530e-02,-1.206018067614884198e-02,0.000000000000000000e+00,0.000000000000000000e+00,0.000000000000000000e+00
-9.508222191449519634e-02,-2.646101009402614113e-02,0.000000000000000000e+00,0.000000000000000000e+00,0.000000000000000000e+00
-1.883636392918715263e-02,-6.475016220464273331e-02,0.000000000000000000e+00,0.000000000000000000e+00,0.000000000000000000e+00
1.446407453689321776e-02,-3.546047211593923894e-03,0.000000000000000000e+00,0.000000000000000000e+00,0.000000000000000000e+00
-2.867141611888508052e-02,-9.373040179987940368e-03,0.000000000000000000e+00,0.000000000000000000e+00,0.000000000000000000e+00
2.561954967786391271e-02,-7.144810657976624624e-02,0.000000000000000000e+00,0.000000000000000000e+00,0.000000000000000000e+00
-5.271668092160872003e-03,-4.360913558564197268e-02,0.000000000000000000e+00,0.000000000000000000e+00,0.000000000000000000e+00
-5.270064848455452422e-02,-6.215711395888056517e-02,0.000000000000000000e+00,0.000000000000000000e+00,0.000000000000000000e+00
2.071433673517655838e-02,2.224713363753662992e-02,0.000000000000000000e+00,0.000000000000000000e+00,0.000000000000000000e+00
9.005442844234617938e-02,5.373279163327113889e-02,0.000000000000000000e+00,0.000000000000000000e+00,0.000000000000000000e+00
1.309112236275928633e-02,4.159471919452997768e-02,0.000000000000000000e+00,0.000000000000000000e+00,0.000000000000000000e+00
2.894106057617952532e-02,4.798053243721860789e-02,0.000000000000000000e+00,0.000000000000000000e+00,0.000000000000000000e+00
-7.539854273236218374e-02,-5.572999497982438627e-02,0.000000000000000000e+00,0.000000000000000000e+00,0.000000000000000000e+00
-9.430200878595140779e-03,5.964246915962909817e-02,0.000000000000000000e+00,0.000000000000000000e+00,0.000000000000000000e+00
-1.215377248185640739e-02,4.367053752821178914e-02,0.000000000000000000e+00,0.000000000000000000e+00,0.000000000000000000e+00
5.189910148425337655e-02,-4.662808779223159839e-02,0.000000000000000000e+00,0.000000000000000000e+00,0.000000000000000000e+00
-3.930758990461662855e-02,1.384370737972349247e-02,0.000000000000000000e+00,0.000000000000000000e+00,0.000000000000000000e+00
-3.192653917823348036e-02,1.400179303643641071e-01,0.000000000000000000e+00,0.000000000000000000e+00,0.000000000000000000e+00
-1.267254225700038643e-02,-8.092177091546930157e-02,0.000000000000000000e+00,0.000000000000000000e+00,0.000000000000000000e+00
3.488789021328999717e-03,-2.588955772417033882e-02,0.000000000000000000e+00,0.000000000000000000e+00,0.000000000000000000e+00
8.805823032072940260e-02,-5.719485459173434538e-02,0.000000000000000000e+00,0.000000000000000000e+00,0.000000000000000000e+00
-6.128442817805328929e-02,-5.223785433360692704e-02,0.000000000000000000e+00,0.000000000000000000e+00,0.000000000000000000e+00
-6.223970778270785514e-02,2.206508044233312232e-02,0.000000000000000000e+00,0.000000000000000000e+00,0.000000000000000000e+00
7.685693808003180028e-02,3.066007786342972094e-02,0.000000000000000000e+00,0.000000000000000000e+00,0.000000000000000000e+00
1.476156945410690008e-02,1.829285847265303341e-02,0.000000000000000000e+00,0.000000000000000000e+00,0.000000000000000000e+00
2.031736340340066505e-02,-1.800351565409992862e-03,0.000000000000000000e+00,0.000000000000000000e+00,0.000000000000000000e+00
-2.879988559176974161e-02,-4.486420162108264824e-03,0.000000000000000000e+00,0.000000000000000000e+00,0.000000000000000000e+00
-5.631994534412002734e-02,4.235418571466538495e-02,0.000000000000000000e+00,0.000000000000000000e+00,0.000000000000000000e+00
-1.854340372528621647e-02,-1.627283157603877720e-02,0.000000000000000000e+00,0.000000000000000000e+00,0.000000000000000000e+00
-9.197265887318656352e-02,-3.813615671134906997e-03,0.000000000000000000e+00,0.000000000000000000e+00,0.000000000000000000e+00
1.702775439997057660e-02,1.689004320754472141e-02,0.000000000000000000e+00,0.000000000000000000e+00,0.000000000000000000e+00
