0.000000000000000000e+00,1.387999999999999901e+00,1.387999999999999901e+00,0.000000000000000000e+00
1.953852170512319388e-03,1.607275038219677432e+00,1.319370942510754707e+00,2.879040957089226693e-01
3.907704341024638775e-03,1.721513917613019862e+00,1.250741885021509514e+00,4.707720325915104032e-01
5.861556511536958163e-03,1.664000860429984296e+00,1.182112827532264321e+00,4.818880328977199201e-01
7.815408682049277550e-03,1.430680412124841983e+00,1.113483770043019128e+00,3.171966420818227439e-01
9.769260852561596070e-03,9.993663647094935820e-01,9.625840829096596885e-01,3.678228179983386581e-02
1.172311302307391633e-02,5.460495273949808048e-01,8.031008994915915800e-01,-2.570513720966107751e-01
1.367696519358623658e-02,1.865128382217582370e-01,6.436177160735234715e-01,-4.571048778517652345e-01
1.563081736409855510e-02,-6.258107546159741297e-03,4.841345326554554740e-01,-4.903926402016152153e-01
1.758466953461087362e-02,1.924962002101571201e-03,3.466952343706351525e-01,-3.447702723685335813e-01
1.953852170512319214e-02,1.410262930254055358e-01,2.143915302530867151e-01,-7.336523722768119316e-02
2.149237387563551413e-02,3.068934909628413532e-01,8.208782613553805563e-02,2.248056648273032698e-01
2.344622604614783265e-02,4.074622942782054613e-01,-3.349833789597195244e-02,4.409606321741774138e-01
2.540007821666015117e-02,4.036374012453854410e-01,-9.260236605396959808e-02,4.962397672993550390e-01
2.735393038717247316e-02,2.187691684655125590e-01,-1.517063942119673270e-01,3.704755626774798860e-01
2.930778255768479168e-02,-1.012598022915298379e-01,-2.108104223699649726e-01,1.095506200784351347e-01
3.126163472819711020e-02,-4.539958030030377123e-01,-2.626540868204927937e-01,-1.913417161825449186e-01
3.321548689870942872e-02,-6.899654998716268084e-01,-2.675387172467735830e-01,-4.224267826248532254e-01
3.516933906922174724e-02,-7.718210757756405194e-01,-2.724233476730543724e-01,-4.993977281025862025e-01
3.712319123973406576e-02,-6.714811919126382200e-01,-2.773079780993351617e-01,-3.941732138133031138e-01
3.907704341024638428e-02,-4.265645130503838978e-01,-2.814221744231520939e-01,-1.451423386272317761e-01
4.103089558075870974e-02,-1.099274129448642723e-01,-2.667682831443096703e-01,1.568408701994453980e-01
4.298474775127102826e-02,1.494893738748551693e-01,-2.521143918654672467e-01,4.016037657403224159e-01
4.493859992178334678e-02,2.623889087614771909e-01,-2.374605005866248786e-01,4.998494093481020695e-01
4.689245209229566530e-02,1.929281968434903294e-01,-2.228066093077825105e-01,4.157348061512728399e-01
4.884630426280798382e-02,-2.843598779429692969e-02,-2.083835060617911239e-01,1.799475182674941942e-01
5.080015643332030234e-02,-3.154639362558940285e-01,-1.939738463042627870e-01,-1.214900899516312416e-01
5.275400860383262086e-02,-5.581686097999769558e-01,-1.795641865467344223e-01,-3.786044232532425613e-01
5.470786077434494632e-02,-6.627468901253044109e-01,-1.651545267892060298e-01,-4.975923633360983533e-01
5.666171294485726484e-02,-5.907735014206055846e-01,-1.557300058662494657e-01,-4.350434955543561188e-01
5.861556511536958336e-02,-3.609594493353995848e-01,-1.471819026202580705e-01,-2.137775467151414865e-01
6.056941728588190188e-02,-5.315285499411627479e-02,-1.386337993742666752e-01,8.548094438015040042e-02
6.252326945639422040e-02,2.234676944649985342e-01,-1.300856961282753077e-01,3.535533905932738419e-01
6.447712162690653892e-02,3.686481513246455677e-01,-1.239906698698251125e-01,4.926388211944706663e-01
6.643097379741885744e-02,3.333072897261447620e-01,-1.186873568355773928e-01,4.519946465617221687e-01
6.838482596793117596e-02,1.330650523135630814e-01,-1.133840438013296870e-01,2.464490961148927683e-01
7.033867813844349448e-02,-1.569502009821437949e-01,-1.079416308173641037e-01,-4.900857016477970507e-02
7.229253030895581300e-02,-4.284222642614012866e-01,-1.018358427845131031e-01,-3.265864214768881557e-01
7.424638247946813152e-02,-5.807456813489341174e-01,-9.573005475166210254e-02,-4.850156265972719871e-01
7.620023464998045004e-02,-5.561206661361804970e-01,-8.962426671881110196e-02,-4.664963994173693673e-01
7.815408682049276856e-02,-3.619777250354181408e-01,-8.419260852561596953e-02,-2.777851165098021435e-01
8.010793899100510096e-02,-7.436430947730121588e-02,-8.663492373875637809e-02,1.227061426145516741e-02
8.206179116151741948e-02,2.087724132943193367e-01,-8.907723895189678665e-02,2.978496522462161233e-01
8.401564333202973800e-02,3.832445361314810173e-01,-9.151955416503718133e-02,4.747640902965182264e-01
8.596949550254205652e-02,3.845082984879268917e-01,-9.396186937817757601e-02,4.784701678661044677e-01
8.792334767305437504e-02,2.208283490642672375e-01,-8.678744622604607495e-02,3.076157952903132986e-01
8.987719984356669356e-02,-5.492666342291453035e-02,-7.946050058662489091e-02,2.453383716371036055e-02
9.183105201407901208e-02,-3.396323648907513815e-01,-7.213355494720369299e-02,-2.674988099435476885e-01
9.378490418459133060e-02,-5.267463755634256284e-01,-6.480660930778250894e-02,-4.619397662556430917e-01
9.573875635510364912e-02,-5.466347959539534784e-01,-5.878373093468904770e-02,-4.878510650192643960e-01
9.769260852561596764e-02,-3.887016518466615000e-01,-5.292217442315208520e-02,-3.357794774235093871e-01
9.964646069612828616e-02,-1.082659555112231858e-01,-4.706061791161512964e-02,-6.120533759960805620e-02
1.016003128666406047e-01,1.944993070129193702e-01,-4.119906140007816714e-02,2.356983684129975443e-01
1.035541650371529232e-01,4.035038205234520725e-01,-4.310833007430586034e-02,4.466121505977579398e-01
1.055080172076652417e-01,4.475722205670598641e-01,-4.701603441533049044e-02,4.945882549823903407e-01
1.074618693781775602e-01,3.111998027193799699e-01,-5.092373875635512748e-02,3.621235414757351112e-01
1.094157215486898926e-01,4.505215162206707008e-02,-5.249300938599913563e-02,9.754516100806620571e-02
1.113695737192022112e-01,-2.480309522703852410e-01,-4.541029526789198967e-02,-2.026206570024932652e-01
1.133234258897145297e-01,-4.671918861499200770e-01,-3.832758114978484371e-02,-4.288643050001352264e-01
1.152772780602268482e-01,-5.298900953710229400e-01,-3.124486703167769427e-02,-4.986452283393452145e-01
1.172311302307391667e-01,-4.112163138929451622e-01,-2.471108721157605145e-02,-3.865052266813691073e-01
1.191849824012514852e-01,-1.556251507358855368e-01,-2.226877199843564983e-02,-1.333563787374498766e-01
1.211388345717638038e-01,1.486184699108143437e-01,-1.982645678529525168e-02,1.684449266961096092e-01
1.230926867422761223e-01,3.914082650036369015e-01,-1.738414157215485006e-02,4.087924065757917447e-01
1.250465389127884408e-01,4.850872604614783201e-01,-1.491273953852167294e-02,5.000000000000000000e-01
1.270003910833007732e-01,3.975431398569805874e-01,-1.124926671881105317e-02,4.087924065757916336e-01
1.289542432538130778e-01,1.608591327970088913e-01,-7.585793899100485432e-03,1.684449266961093872e-01
1.309080954243254102e-01,-1.372786998168399886e-01,-3.922321079389865656e-03,-1.333563787374501264e-01
1.328619475948377149e-01,-3.867640749410463097e-01,-2.588482596792979207e-04,-3.865052266813669979e-01
1.348157997653500473e-01,-4.929708540726260302e-01,5.674374266718891155e-03,-4.986452283393449370e-01
1.367696519358623519e-01,-4.170841427005670954e-01,1.178016229956985877e-02,-4.288643050001369472e-01
1.387235041063746843e-01,-1.847347066700753826e-01,1.788595033242091487e-02,-2.026206570024962905e-01
1.406773562768869890e-01,1.215368993733348391e-01,2.399173836527188422e-02,9.754516100806295831e-02
1.426312084473993214e-01,3.894538392577318597e-01,2.733029778199904877e-02,3.621235414757328352e-01
1.445850606179116260e-01,5.247097701508356415e-01,3.012151516844519678e-02,4.945882549823903962e-01
1.465389127884239584e-01,4.795248831526491839e-01,3.291273255489138294e-02,4.466121505977578288e-01
1.484927649589362630e-01,2.727926194884780497e-01,3.709425107547915240e-02,2.356983684129989043e-01
1.504466171294485954e-01,-1.580721479945174091e-02,4.539812280015655815e-02,-6.120533759960829906e-02
1.524004692999609001e-01,-2.820774828986757354e-01,5.370199452483384595e-02,-3.357794774235095536e-01
1.543543214704732325e-01,-4.258451987697531860e-01,6.200586624951125170e-02,-4.878510650192644515e-01
1.563081736409855371e-01,-3.917841151019486046e-01,7.015565115369576388e-02,-4.619397662556443684e-01
1.582620258114978695e-01,-1.900162131504334606e-01,7.748259679311700343e-02,-2.674988099435504640e-01
1.602158779820102019e-01,1.093433795962452937e-01,8.480954243253824298e-02,2.453383716370705764e-02
1.621697301525225066e-01,3.997522833622715321e-01,9.213648807195938539e-02,3.076157952903121329e-01
1.641235823230348390e-01,5.778409148352084967e-01,9.937074696910450089e-02,4.784701678661040236e-01
1.660774344935471436e-01,5.799963937771600575e-01,1.052323034806414287e-01,4.747640902965186704e-01
1.680312866640594760e-01,4.089435122383957566e-01,1.110938599921784398e-01,2.978496522462173446e-01
1.699851388345717806e-01,1.292260307651720563e-01,1.169554165037153676e-01,1.227061426145669917e-02
1.719389910050841130e-01,-1.549681434945484881e-01,1.228169730152523786e-01,-2.777851165098008668e-01
1.738928431755964177e-01,-3.352152105241350544e-01,1.312811888932343685e-01,-4.664963994173694228e-01
1.758466953461087501e-01,-3.451863344580461401e-01,1.398292921392258192e-01,-4.850156265972719316e-01
1.778005475166210547e-01,-1.782090260916707747e-01,1.483773953852171590e-01,-3.265864214768879337e-01
1.797543996871333871e-01,1.079169284664256157e-01,1.569254986312086098e-01,-4.900857016478300104e-02
1.817082518576456918e-01,4.087197257590041710e-01,1.622706296441142337e-01,2.464490961148899095e-01
1.836621040281580242e-01,6.191499066321157763e-01,1.671552600703950786e-01,4.519946465617207254e-01
1.856159561986703288e-01,6.646787116911467841e-01,1.720398904966758125e-01,4.926388211944709439e-01
1.875698083691826612e-01,5.304779115162314707e-01,1.769245209229566296e-01,3.535533905932748966e-01
1.895236605396949936e-01,2.719699102441668348e-01,1.864889658640149495e-01,8.548094438015191310e-02
1.914775127102072982e-01,-1.640283304398520992e-02,1.973747136711549166e-01,-2.137775467151401265e-01
1.934313648807196306e-01,-2.267830340760602914e-01,2.082604614782950503e-01,-4.350434955543553417e-01
1.953852170512319353e-01,-2.801108420220585482e-01,2.174815213140399162e-01,-4.975923633360984644e-01
1.973390692217442677e-01,-1.586805867260620562e-01,2.199238365271803386e-01,-3.786044232532423948e-01
1.992929213922565723e-01,1.008760617886888394e-01,2.223661517403207055e-01,-1.214900899516318661e-01
2.012467735627689047e-01,4.047559852209555720e-01,2.248084669534611280e-01,1.799475182674944163e-01
2.032006257332812094e-01,6.437379348176770488e-01,2.280031286664059853e-01,4.157348061512710080e-01
2.051544779037935418e-01,7.376217988670699111e-01,2.377723895189676750e-01,4.998494093481021805e-01
2.071083300743058464e-01,6.491454161118509480e-01,2.475416503715292260e-01,4.016037657403217498e-01
2.090621822448181788e-01,4.141517814235386452e-01,2.573109112240909435e-01,1.568408701994477017e-01
2.110160344153304834e-01,1.219157861283401978e-01,2.670581247555730564e-01,-1.451423386272328586e-01
2.129698865858428158e-01,-1.200323749396219886e-01,2.741408388736802371e-01,-3.941732138133022256e-01
2.149237387563551205e-01,-2.181741751107986738e-01,2.812235529917873067e-01,-4.993977281025859805e-01
2.168775909268674529e-01,-1.341205155149595707e-01,2.883062671098944874e-01,-4.224267826248540580e-01
2.188314430973797853e-01,1.040472650454529469e-01,2.953889812280017235e-01,-1.913417161825487767e-01
2.207852952678920899e-01,4.055506200784345094e-01,2.959999999999999853e-01,1.095506200784345102e-01
2.227391474384044223e-01,6.664755626774769848e-01,2.959999999999999853e-01,3.704755626774770549e-01
2.246929996089167270e-01,7.922397672993550799e-01,2.959999999999999853e-01,4.962397672993550390e-01
2.266468517794290594e-01,7.369606321741789534e-01,2.959999999999999853e-01,4.409606321741789681e-01
2.286007039499413640e-01,5.230923847557903406e-01,2.982867199284876536e-01,2.248056648273026592e-01
2.305545561204536964e-01,2.277127000872554707e-01,3.010779373149338189e-01,-7.336523722767834821e-02
2.325084082909660010e-01,-4.090111766715437414e-02,3.038691547013799843e-01,-3.447702723685343584e-01
2.344622604614783334e-01,-1.849704657784627115e-01,3.054221744231521152e-01,-4.903926402016148267e-01
2.364161126319906381e-01,-1.541250186417528756e-01,3.029798592100116927e-01,-4.571048778517645683e-01
2.383699648025029705e-01,4.348617190025916290e-02,3.005375439968712703e-01,-2.570513720966121074e-01
2.403238169730152751e-01,3.348775105835599120e-01,2.980952287837309034e-01,3.678228179982902246e-02
2.422776691435276075e-01,6.128842642953534758e-01,2.956876222135313981e-01,3.171966420818220778e-01
2.442315213140399122e-01,7.753775714194238722e-01,2.934895385217050623e-01,4.818880328977188099e-01
2.461853734845522446e-01,7.620634874213891852e-01,2.912914548298787265e-01,4.707720325915105142e-01
2.481392256550645492e-01,5.769974668469779466e-01,2.890933711380523352e-01,2.879040957089255559e-01
2.500930778255768816e-01,2.865927845131008844e-01,2.865927845131011065e-01,-2.455483404660589927e-16
2.520469299960891862e-01,-9.859414441810376850e-03,2.780446812671097945e-01,-2.879040957089201713e-01
2.540007821666015464e-01,-2.012754545703924203e-01,2.694965780211182604e-01,-4.707720325915106807e-01
2.559546343371138510e-01,-2.209395581225936378e-01,2.609484747751269484e-01,-4.818880328977205862e-01
2.579084865076261557e-01,-6.479627055268610825e-02,2.524003715291355809e-01,-3.171966420818216892e-01
2.598623386781384603e-01,2.059060248094721213e-01,2.426883066093077357e-01,-3.678228179983561441e-02
2.618161908486508205e-01,4.899704178533584309e-01,2.329190457567459349e-01,2.570513720966124960e-01
2.637700430191631251e-01,6.802546627559492576e-01,2.231497849041844395e-01,4.571048778517647904e-01
2.657238951896754298e-01,7.037731642532389920e-01,2.133805240516229162e-01,4.903926402016161035e-01
2.676777473601877344e-01,5.498196047334705794e-01,2.050493323649365818e-01,3.447702723685340254e-01
2.696315995307000946e-01,2.703200391719274287e-01,1.969548019442425302e-01,7.336523722768489852e-02
2.715854517012123992e-01,-3.594539330375440267e-02,1.888602715235487006e-01,-2.248056648273031033e-01
2.735393038717247038e-01,-2.613312813724550931e-01,1.796293508017207385e-01,-4.409606321741758594e-01
2.754931560422370085e-01,-3.288219925633361074e-01,1.674177747360188484e-01,-4.962397672993549835e-01
2.774470082127493686e-01,-2.152693640071649539e-01,1.552061986703165974e-01,-3.704755626774815513e-01
2.794008603832616733e-01,3.344400252618066893e-02,1.429946226046147073e-01,-1.095506200784340384e-01
2.813547125537739779e-01,3.223907971367859782e-01,1.310490809542432800e-01,1.913417161825426704e-01
2.833085647242863381e-01,5.427296766412794682e-01,1.203028940164252159e-01,4.224267826248542801e-01
2.852624168947986427e-01,6.089544351811937428e-01,1.095567070786074709e-01,4.993977281025863135e-01
2.872162690653109474e-01,4.929837339540960039e-01,9.881052014078972601e-02,3.941732138133062779e-01
2.891701212358232520e-01,2.331854066757264587e-01,8.804306804849408585e-02,1.451423386272323868e-01
2.911239734063356122e-01,-7.978822061007935507e-02,7.705264958936207387e-02,-1.568408701994414289e-01
2.930778255768479168e-01,-3.355415346100916740e-01,6.606223113023036719e-02,-4.016037657403220273e-01
2.950316777473602214e-01,-4.447775966770033396e-01,5.507181267109866746e-02,-4.998494093481020140e-01
2.969855299178725261e-01,-3.716534119393057334e-01,4.408139421196696078e-02,-4.157348061512726733e-01
2.989393820883848862e-01,-1.454020059483736582e-01,3.454551231912361686e-02,-1.799475182674972751e-01
3.008932342588971909e-01,1.465105729395084766e-01,2.502048298787614214e-02,1.214900899516323379e-01
3.028470864294094955e-01,3.940998769098690846e-01,1.549545365662866395e-02,3.786044232532403964e-01
3.048009385999218002e-01,5.035627876614796605e-01,5.970424325381189223e-03,4.975923633360985199e-01
3.067547907704341603e-01,4.334630301652287465e-01,-1.580465389128120866e-03,4.350434955543568405e-01
3.087086429409464650e-01,2.048701356865904322e-01,-8.907411028549257204e-03,2.137775467151396824e-01
3.106624951114587696e-01,-1.017153010481192804e-01,-1.623435666797039267e-02,-8.548094438014888774e-02
3.126163472819710742e-01,-3.771146929006616855e-01,-2.356130230739152814e-02,-3.535533905932701781e-01
3.145701994524834344e-01,-5.241439332119017802e-01,-3.150511201743136369e-02,-4.926388211944704443e-01
3.165240516229957390e-01,-4.915942889998487497e-01,-3.959964243812519324e-02,-4.519946465617235565e-01
3.184779037935080437e-01,-2.941432689737115691e-01,-4.769417285881901586e-02,-2.464490961148925741e-01
3.204317559640204038e-01,-5.531124790249079826e-03,-5.453969495502549586e-02,4.900857016477641603e-02
3.223856081345327085e-01,2.696044113087224248e-01,-5.698201016816587666e-02,3.265864214768883222e-01
3.243394603050450131e-01,4.255913012159649456e-01,-5.942432538130625053e-02,4.850156265972712100e-01
3.262933124755573178e-01,4.046297588229226250e-01,-6.186664059444663133e-02,4.664963994173692563e-01
3.282471646460696779e-01,2.140940723173904991e-01,-6.369104419241292114e-02,2.777851165098034203e-01
3.302010168165819826e-01,-7.351934324072972871e-02,-6.124872897927254034e-02,-1.227061426145719010e-02
3.321548689870942872e-01,-3.566560660123470616e-01,-5.880641376613215954e-02,-2.978496522462149021e-01
3.341087211576065918e-01,-5.311281888495084091e-01,-5.636409855299178567e-02,-4.747640902965166165e-01
3.360625733281189520e-01,-5.326266011864022598e-01,-5.415643332029732721e-02,-4.784701678661049118e-01
3.380164254986312566e-01,-3.666568590368954328e-01,-5.904106374657811657e-02,-3.076157952903172954e-01
3.399702776691435613e-01,-8.845953133656903056e-02,-6.392569417285891287e-02,-2.453383716371011422e-02
3.419241298396558659e-01,1.986884853444051968e-01,-6.881032459913970223e-02,2.674988099435449129e-01
3.438779820101682261e-01,3.882448112302225307e-01,-7.369495502542063037e-02,4.619397662556431472e-01
3.458318341806805307e-01,4.127061686563398002e-01,-7.514489636292534525e-02,4.878510650192651177e-01
3.477856863511928354e-01,2.594134234540136363e-01,-7.636605396949552871e-02,3.357794774235091650e-01
3.497395385217051955e-01,-1.638187397645442939e-02,-7.758721157606576768e-02,6.120533759961133830e-02
3.516933906922175002e-01,-3.145067375956352995e-01,-7.880836918263595114e-02,-2.356983684129993206e-01
3.536472428627298048e-01,-5.279653546873704917e-01,-8.135320408961403682e-02,-4.466121505977564410e-01
3.556010950332421094e-01,-5.787326764584505012e-01,-8.414442147606017441e-02,-4.945882549823903407e-01
3.575549472037544696e-01,-4.490591803382413261e-01,-8.693563886250640915e-02,-3.621235414757349447e-01
3.595087993742667742e-01,-1.865451610080694489e-01,-8.899999999999999578e-02,-9.754516100806945311e-02
3.614626515447790789e-01,1.136206570024934914e-01,-8.899999999999999578e-02,2.026206570024934872e-01
3.634165037152913835e-01,3.398643050001335375e-01,-8.899999999999999578e-02,4.288643050001335610e-01
3.653703558858037437e-01,4.096452283393451355e-01,-8.899999999999999578e-02,4.986452283393451590e-01
3.673242080563160483e-01,2.973025966461737002e-01,-8.920263003519753042e-02,3.865052266813712167e-01
3.692780602268283530e-01,4.293259109568192677e-02,-9.042378764176772776e-02,1.333563787374496545e-01
3.712319123973406576e-01,-2.600898719444444396e-01,-9.164494524833791123e-02,-1.684449266961065006e-01
3.731857645678530178e-01,-5.016585094307000059e-01,-9.286610285490813632e-02,-4.087924065757919112e-01
3.751396167383653224e-01,-5.939999999999999725e-01,-9.400000000000000022e-02,-5.000000000000000000e-01
3.770934689088776270e-01,-5.027924065757914951e-01,-9.400000000000000022e-02,-4.087924065757914671e-01
3.790473210793899872e-01,-2.624449266961125238e-01,-9.400000000000000022e-02,-1.684449266961124958e-01
3.810011732499022918e-01,3.935637873745034820e-02,-9.400000000000000022e-02,1.333563787374503484e-01
3.829550254204145965e-01,2.925052266813671364e-01,-9.400000000000000022e-02,3.865052266813671644e-01
3.849088775909269011e-01,4.046452283393446869e-01,-9.400000000000000022e-02,4.986452283393447149e-01
3.868627297614392613e-01,3.348643050001367527e-01,-9.400000000000000022e-02,4.288643050001367807e-01
3.888165819319515659e-01,1.086206570024993157e-01,-9.400000000000000022e-02,2.026206570024993159e-01
3.907704341024638706e-01,-1.915451610080632083e-01,-9.400000000000000022e-02,-9.754516100806320811e-02
3.927242862729761752e-01,-4.536602753714789049e-01,-9.153673389574834562e-02,-3.621235414757305593e-01
3.946781384434885354e-01,-5.833337714916926320e-01,-8.874551650930212476e-02,-4.945882549823904517e-01
3.966319906140008400e-01,-5.325664497206152870e-01,-8.595429912285597329e-02,-4.466121505977593276e-01
3.985858427845131446e-01,-3.200645201533193762e-01,-8.436615174032070785e-02,-2.356983684129986822e-01
4.005396949550254493e-01,-2.438197174728587435e-02,-8.558730934689089132e-02,6.120533759960501696e-02
4.024935471255378094e-01,2.489710104700486037e-01,-8.680846695346111641e-02,3.357794774235097202e-01
4.044473992960501141e-01,3.998214404592324023e-01,-8.802962456003129987e-02,4.878510650192637299e-01
4.064012514665624187e-01,3.726889840890441064e-01,-8.925078216660149721e-02,4.619397662556455897e-01
4.083551036370747789e-01,1.770268701703785752e-01,-9.047193977317172231e-02,2.674988099435502975e-01
4.103089558075870835e-01,-1.162269345434456813e-01,-9.169309737974191965e-02,-2.453383716370375472e-02
4.122628079780993882e-01,-4.005300502766188098e-01,-9.291425498631211699e-02,-3.076157952903066928e-01
4.142166601486116928e-01,-5.723347552732227506e-01,-9.386458740711767224e-02,-4.784701678661051338e-01
4.161705123191240530e-01,-5.674075200970660759e-01,-9.264342980054746102e-02,-4.747640902965186149e-01
4.181243644896363576e-01,-3.892719244401972589e-01,-9.142227219397726368e-02,-2.978496522462200091e-01
4.200782166601486622e-01,-1.024717288488706246e-01,-9.020111458740706634e-02,-1.227061426146355654e-02
4.220320688306609669e-01,1.888252025481302609e-01,-8.895991396167376997e-02,2.777851165098040309e-01
4.239859210011733270e-01,3.799788006688362141e-01,-8.651759874853331977e-02,4.664963994173695339e-01
4.259397731716856317e-01,4.009403430618797559e-01,-8.407528353539295285e-02,4.850156265972727088e-01
4.278936253421979363e-01,2.449534531546405658e-01,-8.163296832225257205e-02,3.265864214768931517e-01
4.298474775127102410e-01,-3.018208294432236927e-02,-7.919065310911219124e-02,4.900857016478982198e-02
4.318013296832226011e-01,-3.265749271669073361e-01,-8.012583105201412370e-02,-2.464490961148932124e-01
4.337551818537349058e-01,-5.333416352203051991e-01,-8.134698865858432104e-02,-4.519946465617208364e-01
4.357090340242472104e-01,-5.752069674596260729e-01,-8.256814626515451838e-02,-4.926388211944714990e-01
4.376628861947595706e-01,-4.373426944650044557e-01,-8.378930387172472960e-02,-3.535533905932797261e-01
4.396167383652718752e-01,-1.694809443801481574e-01,-8.400000000000000522e-02,-8.548094438014816610e-02
4.415705905357841798e-01,1.297775467151403572e-01,-8.400000000000000522e-02,2.137775467151403486e-01
4.435244427062964845e-01,3.510434955543537128e-01,-8.400000000000000522e-02,4.350434955543537319e-01
4.454782948768088446e-01,4.150870348261267995e-01,-8.250532850997238654e-02,4.975923633360991860e-01
4.474321470473211493e-01,3.022048827761185108e-01,-7.639954047712144147e-02,3.786044232532399523e-01
4.493859992178334539e-01,5.119633750736113376e-02,-7.029375244427049640e-02,1.214900899516316302e-01
4.513398513883457586e-01,-2.441354826789108867e-01,-6.418796441141953746e-02,-1.799475182674913354e-01
4.532937035588581187e-01,-4.752855003241281406e-01,-5.955069417285894368e-02,-4.157348061512691761e-01
4.552475557293704234e-01,-5.630635763406718342e-01,-6.321416699256951488e-02,-4.998494093481023470e-01
4.572014078998827280e-01,-4.684814055526016485e-01,-6.687763981228007915e-02,-4.016037657403215833e-01
4.591552600703950326e-01,-2.273819828314381231e-01,-7.054111263199064341e-02,-1.568408701994474796e-01
4.611091122409073928e-01,7.127872892836052687e-02,-7.386360969886578143e-02,1.451423386272263083e-01
4.630629644114196974e-01,3.227519193275726339e-01,-7.142129448572538675e-02,3.941732138132980068e-01
4.650168165819320021e-01,4.304187488300013076e-01,-6.897897927258499207e-02,4.993977281025863135e-01
4.669706687524443067e-01,3.558901185654093635e-01,-6.653666405944459739e-02,4.224267826248539470e-01
4.689245209229566669e-01,1.272473673362444213e-01,-6.409434884630413332e-02,1.913417161825485546e-01
4.708783730934689715e-01,-1.747246032618459677e-01,-6.517398318341813268e-02,-1.095506200784278211e-01
4.728322252639812762e-01,-4.368707034674703116e-01,-6.639514078998831614e-02,-3.704755626774819954e-01
4.747860774344936363e-01,-5.638560656959136219e-01,-6.761629839655854124e-02,-4.962397672993550390e-01
4.767399296050059410e-01,-5.097980881773076511e-01,-6.883745600312873858e-02,-4.409606321741788570e-01
4.786937817755182456e-01,-2.925958207019386248e-01,-6.779015587462981773e-02,-2.248056648273087932e-01
4.806476339460305502e-01,6.970690046264840789e-03,-6.639454718140673506e-02,7.336523722767157585e-02
4.826014861165429104e-01,2.797713338803509697e-01,-6.499893848818362463e-02,3.447702723685345805e-01
4.845553382870552150e-01,4.263926402016148809e-01,-6.400000000000000133e-02,4.903926402016148822e-01
4.865091904575675197e-01,3.931048778517673425e-01,-6.400000000000000133e-02,4.571048778517673439e-01
4.884630426280798243e-01,1.930513720966179902e-01,-6.400000000000000133e-02,2.570513720966179916e-01
4.904168947985921845e-01,-1.007822817998363513e-01,-6.400000000000000133e-02,-3.678228179983634993e-02
4.923707469691044891e-01,-3.814283589375125905e-01,-6.423171685569031841e-02,-3.171966420818222443e-01
4.943245991396167938e-01,-5.473409073599793118e-01,-6.545287446226050188e-02,-4.818880328977188654e-01
4.962784513101290984e-01,-5.374460646603435032e-01,-6.667403206883068534e-02,-4.707720325915127901e-01
4.982323034806414586e-01,-3.557992853843204850e-01,-6.789518967540092431e-02,-2.879040957089195607e-01
5.001861556511537632e-01,-6.865095815408621405e-02,-6.865095815408669977e-02,4.910966809321179854e-16
5.021400078216661234e-01,2.229166103745443550e-01,-6.498748533437602448e-02,2.879040957089203934e-01
5.040938599921783725e-01,4.094480200768427780e-01,-6.132401251466555736e-02,4.707720325915083492e-01
5.060477121626907326e-01,4.242274932027675360e-01,-5.766053969495488901e-02,4.818880328977224181e-01
5.080015643332030928e-01,2.631946866653176453e-01,-5.400195541650385650e-02,3.171966420818215227e-01
5.099554165037153419e-01,-1.966198882980879636e-02,-5.644427062964416791e-02,3.678228179983537155e-02
5.119092686742277021e-01,-3.159379579393912230e-01,-5.888658584278461117e-02,-2.570513720966066118e-01
5.138631208447399512e-01,-5.184337789076869374e-01,-6.132890105592492258e-02,-4.571048778517620148e-01
5.158169730152523114e-01,-5.541638564706801162e-01,-6.377121626906537277e-02,-4.903926402016147157e-01
5.177708251857646715e-01,-4.100351475012228852e-01,-6.526487513268904028e-02,-3.447702723685338588e-01
5.197246773562769206e-01,-1.400257210535967300e-01,-6.666048382591208132e-02,-7.336523722768464872e-02
5.216785295267892808e-01,1.567495723081617776e-01,-6.805609251913519175e-02,2.248056648272969693e-01
5.236323816973016410e-01,3.719606321741793509e-01,-6.900000000000000577e-02,4.409606321741793566e-01
5.255862338678138901e-01,4.272397672993549222e-01,-6.900000000000000577e-02,4.962397672993549280e-01
5.275400860383262502e-01,3.014755626774813235e-01,-6.900000000000000577e-02,3.704755626774813293e-01
5.294939382088384994e-01,4.055062007844072169e-02,-6.900000000000000577e-02,1.095506200784407275e-01
5.314477903793508595e-01,-2.603417161825363202e-01,-6.900000000000000577e-02,-1.913417161825363422e-01
5.334016425498632197e-01,-4.914267826248544524e-01,-6.900000000000000577e-02,-4.224267826248544466e-01
5.353554947203754688e-01,-5.683977281025862638e-01,-6.900000000000000577e-02,-4.993977281025862580e-01
5.373093468908878290e-01,-4.631732138133061172e-01,-6.900000000000000577e-02,-3.941732138133061114e-01
5.392631990614001891e-01,-2.139778392138638741e-01,-6.883550058662490923e-02,-1.451423386272389648e-01
5.412170512319124382e-01,8.922652721939364207e-02,-6.761434298005475352e-02,1.568408701994483956e-01
5.431709034024247984e-01,3.352105803668376516e-01,-6.639318537348452842e-02,4.016037657403221939e-01
5.451247555729371586e-01,4.346773815811877384e-01,-6.517202776691430333e-02,4.998494093481020140e-01
5.470786077434494077e-01,3.516856763116206208e-01,-6.404912983965585505e-02,4.157348061512765036e-01
5.490324599139617678e-01,1.146772308212775787e-01,-6.527028744622608014e-02,1.799475182675036589e-01
5.509863120844740170e-01,-1.879815350044288236e-01,-6.649144505279623585e-02,-1.214900899516325739e-01
5.529401642549863771e-01,-4.463170259126070238e-01,-6.771260265936646094e-02,-3.786044232532405629e-01
5.548940164254987373e-01,-5.665261236020345814e-01,-6.893376026593668604e-02,-4.975923633360978537e-01
5.568478685960109864e-01,-5.040434955543602324e-01,-6.900000000000000577e-02,-4.350434955543602267e-01
5.588017207665233466e-01,-2.827775467151394384e-01,-6.900000000000000577e-02,-2.137775467151394604e-01
5.607555729370357067e-01,1.648094438014913177e-02,-6.900000000000000577e-02,8.548094438014913754e-02
5.627094251075479558e-01,2.845533905932703944e-01,-6.900000000000000577e-02,3.535533905932704002e-01
5.646632772780603160e-01,4.260149315916983426e-01,-6.662388960277090821e-02,4.926388211944692230e-01
5.666171294485726762e-01,3.881619743453957883e-01,-6.383267221632467348e-02,4.519946465617204479e-01
5.685709816190849253e-01,1.854076412850137467e-01,-6.104145482987860527e-02,2.464490961148923520e-01
5.705248337895972854e-01,-1.083365912832749967e-01,-5.932802111849833082e-02,-4.900857016477665890e-02
5.724786859601095346e-01,-3.871356002019516462e-01,-6.054917872506848653e-02,-3.265864214768831597e-01
5.744325381306218947e-01,-5.467859629289082424e-01,-6.177033633163871162e-02,-4.850156265972695446e-01
5.763863903011342549e-01,-5.294878933555781098e-01,-6.299149393820893672e-02,-4.664963994173692008e-01
5.783402424716465040e-01,-3.417851165098031996e-01,-6.400000000000000133e-02,-2.777851165098031982e-01
5.802940946421588642e-01,-5.172938573854966859e-02,-6.400000000000000133e-02,1.227061426145033100e-02
5.822479468126712243e-01,2.338496522462093496e-01,-6.400000000000000133e-02,2.978496522462093510e-01
5.842017989831834734e-01,4.107640902965188912e-01,-6.400000000000000133e-02,4.747640902965188925e-01
5.861556511536958336e-01,4.143728858950449512e-01,-6.409728197105991898e-02,4.784701678661048563e-01
5.881095033242080827e-01,2.422973557126870681e-01,-6.531843957763007469e-02,3.076157952903171289e-01
5.900633554947204429e-01,-4.200576002048333341e-02,-6.653959718420029978e-02,2.453383716371696638e-02
5.920172076652328030e-01,-3.352595647343216689e-01,-6.776075479077052488e-02,-2.674988099435511302e-01
5.939710598357450522e-01,-5.309216786529838972e-01,-6.898191239734068059e-02,-4.619397662556432582e-01
5.959249120062574123e-01,-5.580541350231760234e-01,-7.020307000391090568e-02,-4.878510650192650622e-01
5.978787641767697725e-01,-4.072037050339953890e-01,-7.142422761048111690e-02,-3.357794774235142721e-01
5.998326163472820216e-01,-1.338507228166694318e-01,-7.264538521705127261e-02,-6.120533759961814535e-02
6.017864685177943818e-01,1.618318255893780311e-01,-7.386654282362149770e-02,2.356983684129995427e-01
6.037403206883067419e-01,3.726121505977565418e-01,-7.399999999999999634e-02,4.466121505977565520e-01
6.056941728588189910e-01,4.205882549823913297e-01,-7.399999999999999634e-02,4.945882549823913399e-01
6.076480250293313512e-01,2.881235414757396529e-01,-7.399999999999999634e-02,3.621235414757396631e-01
6.096018771998436003e-01,2.279281450825772215e-02,-7.475234649980451451e-02,9.754516100806223666e-02
6.115557293703559605e-01,-2.798153187154386878e-01,-7.719466171294496470e-02,-2.026206570024937093e-01
6.135095815408683206e-01,-5.085012819262191286e-01,-7.963697692608541490e-02,-4.288643050001336721e-01
6.154634337113805698e-01,-5.807245204785714821e-01,-8.207929213922572631e-02,-4.986452283393457141e-01
6.174172858818929299e-01,-4.694620119766342303e-01,-8.295678529526766265e-02,-3.865052266813665538e-01
6.193711380524052901e-01,-2.114285336064361531e-01,-7.807215486898676227e-02,-1.333563787374494047e-01
6.213249902229175392e-01,9.525740225340056933e-02,-7.318752444270615332e-02,1.684449266961067226e-01
6.232788423934298994e-01,3.404895125593627170e-01,-6.830289401642525293e-02,4.087924065757879699e-01
6.252326945639421485e-01,4.358545658975361281e-01,-6.414543410246384414e-02,5.000000000000000000e-01
6.271865467344545086e-01,3.434258148667572730e-01,-6.536659170903406924e-02,4.087924065757913561e-01
6.291403989049668688e-01,1.018571773805079794e-01,-6.658774931560429433e-02,1.684449266961122738e-01
6.310942510754791179e-01,-2.011652856596181926e-01,-6.780890692217445004e-02,-1.333563787374437426e-01
6.330481032459914781e-01,-4.555954202675968068e-01,-6.909019358623401386e-02,-3.865052266813627790e-01
6.350019554165038382e-01,-5.713988947452899314e-01,-7.275366640594468914e-02,-4.986452283393452700e-01
6.369558075870160874e-01,-5.052814442257917982e-01,-7.641713922565515626e-02,-4.288643050001366697e-01
6.389096597575284475e-01,-2.827012690478649115e-01,-8.008061204536581767e-02,-2.026206570024990938e-01
6.408635119280408077e-01,1.380107614297998442e-02,-8.374408486507649296e-02,9.754516100805647738e-02
6.428173640985530568e-01,2.820178931154921353e-01,-8.010564836024348934e-02,3.621235414757356108e-01
6.447712162690654170e-01,4.186694327018163353e-01,-7.591882228057414417e-02,4.945882549823904517e-01
6.467250684395776661e-01,3.748801543968541816e-01,-7.173199620090504880e-02,4.466121505977592165e-01
6.486789206100900262e-01,1.654253922690859802e-01,-7.027297614391876668e-02,2.356983684130047330e-01
6.506327727806023864e-01,-1.351417865632276449e-01,-7.393644896362944197e-02,-6.120533759959820991e-02
6.525866249511146355e-01,-4.133793992068498513e-01,-7.759992178333989521e-02,-3.357794774235099422e-01
6.545404771216269957e-01,-5.691144596223143282e-01,-8.126339460305057050e-02,-4.878510650192637854e-01
6.564943292921393558e-01,-5.456308104480585008e-01,-8.369104419241292503e-02,-4.619397662556455342e-01
6.584481814626516050e-01,-3.499686965293988261e-01,-8.246988658584276932e-02,-2.674988099435560707e-01
6.604020336331639651e-01,-5.671489181556144815e-02,-8.124872897927254423e-02,2.453383716371109607e-02
6.623558858036763253e-01,2.275882239176101884e-01,-8.002757137270231913e-02,3.076157952903125214e-01
6.643097379741885744e-01,3.990829953983674461e-01,-7.938717246773567549e-02,4.784701678661031354e-01
6.662635901447009346e-01,3.929346026156446681e-01,-8.182948768087612568e-02,4.747640902965207799e-01
6.682174423152131837e-01,2.135778493522090815e-01,-8.427180289401642321e-02,2.978496522462255047e-01
6.701712944857255438e-01,-7.444350384570067036e-02,-8.671411810715687341e-02,1.227061426145620825e-02
6.721251466562379040e-01,-3.665504665293523034e-01,-8.876535001955400406e-02,-2.777851165097983133e-01
6.740789988267501531e-01,-5.515982766172106144e-01,-8.510187719984353694e-02,-4.664963994173670914e-01
6.760328509972625133e-01,-5.664540309774072080e-01,-8.143840438013286165e-02,-4.850156265972743741e-01
6.779867031677748734e-01,-4.043613530373098008e-01,-7.777493156042220024e-02,-3.265864214768876006e-01
6.799405553382871226e-01,-1.231200289054942415e-01,-7.411145874071173312e-02,-4.900857016478250838e-02
6.818944075087994827e-01,1.795531242728852228e-01,-6.689597184200202218e-02,2.464490961148872450e-01
6.838482596793117319e-01,3.924256203591369174e-01,-5.956902620258099773e-02,4.519946465617178943e-01
6.858021118498240920e-01,4.403967406313107347e-01,-5.224208056315955695e-02,4.926388211944702777e-01
6.877559640203364522e-01,3.086382556695364543e-01,-4.491513492373810923e-02,3.535533905932745635e-01
6.897098161908487013e-01,3.903834982179956586e-02,-4.644259455835535871e-02,8.548094438015492458e-02
6.916636683613610614e-01,-2.630113586599357456e-01,-4.923381194480158651e-02,-2.137775467151341313e-01
6.936175205318734216e-01,-4.870685248855981531e-01,-5.202502933124781431e-02,-4.350434955543503457e-01
6.955713727023856707e-01,-5.495211372899502233e-01,-5.192877395385176592e-02,-4.975923633360984644e-01
6.975252248728980309e-01,-4.234504830889888605e-01,-4.484605983574446730e-02,-3.786044232532443932e-01
6.994790770434103910e-01,-1.592534356692754671e-01,-3.776334571763717562e-02,-1.214900899516382776e-01
7.014329292139226402e-01,1.492668866679546513e-01,-3.068063159953027599e-02,1.799475182674849238e-01
7.033867813844350003e-01,3.914600212470889518e-01,-2.427478490418429752e-02,4.157348061512732285e-01
7.053406335549472495e-01,4.792380972636283709e-01,-2.061131208447383387e-02,4.998494093481021805e-01
7.072944857254596096e-01,3.846559264755625152e-01,-1.694783926476316205e-02,4.016037657403256911e-01
7.092483378959719698e-01,1.435565037544014877e-01,-1.328436644505249023e-02,1.568408701994539745e-01
7.112021900664842189e-01,-1.550159698356806670e-01,-9.873631208447341753e-03,-1.451423386272333305e-01
7.131560422369965790e-01,-4.028256874151796008e-01,-8.652473601877118392e-03,-3.941732138133025032e-01
7.151098944075089392e-01,-5.068290440978928668e-01,-7.431315995306893296e-03,-4.993977281025859805e-01
7.170637465780211883e-01,-4.286369410135943414e-01,-6.210158388736739324e-03,-4.224267826248576108e-01
7.190175987485335485e-01,-1.963637146182218851e-01,-5.021998435666970122e-03,-1.913417161825549107e-01
7.209714509190459086e-01,1.020863064296275713e-01,-7.464313648807417712e-03,1.095506200784349959e-01
7.229253030895581578e-01,3.605689338155296797e-01,-9.906628861947725656e-03,3.704755626774773880e-01
7.248791552600705179e-01,4.838908232242660201e-01,-1.234894407508817411e-02,4.962397672993542064e-01
7.268330074305827670e-01,4.261693728859535790e-01,-1.479125928822848379e-02,4.409606321741820767e-01
7.287868596010951272e-01,2.098056648273022295e-01,-1.499999999999999944e-02,2.248056648273022151e-01
7.307407117716074874e-01,-8.836523722767883338e-02,-1.499999999999999944e-02,-7.336523722767883393e-02
7.326945639421197365e-01,-3.597702723685296533e-01,-1.499999999999999944e-02,-3.447702723685296400e-01
7.346484161126320966e-01,-5.041768599904283832e-01,-1.378421978881479333e-02,-4.903926402016135500e-01
7.366022682831444568e-01,-4.672256248208685459e-01,-1.012074696910411978e-02,-4.571048778517644018e-01
7.385561204536567059e-01,-2.635086462460053403e-01,-6.457274149393657861e-03,-2.570513720966116633e-01
7.405099726241690661e-01,3.398848047014652041e-02,-2.793801329682986043e-03,3.678228179982950818e-02
7.424638247946813152e-01,3.157471895984378385e-01,-1.449452483379130938e-03,3.171966420818169707e-01
7.444176769651936754e-01,4.743327923814868452e-01,-7.555240516230251648e-03,4.818880328977170890e-01
7.463715291357060355e-01,4.571110040424289922e-01,-1.366102854908137106e-02,4.707720325915103476e-01
7.483253813062182846e-01,2.681372791269930334e-01,-1.976681658193214439e-02,2.879040957089251673e-01
7.502792334767306448e-01,-2.517452092295028448e-02,-2.517452092295665439e-02,6.368782336202824831e-15
7.522330856472430050e-01,-3.142997742384416870e-01,-2.639567852952687602e-02,-2.879040957089147867e-01
7.541869378177552541e-01,-4.983888687276079033e-01,-2.761683613609703172e-02,-4.707720325915108472e-01
7.561407899882676142e-01,-5.107260266403876869e-01,-2.883799374266725335e-02,-4.818880328977204752e-01
7.580946421587799744e-01,-3.473149447803017820e-01,-3.011830269847495800e-02,-3.171966420818267962e-01
7.600484943292922235e-01,-6.934289971145748965e-02,-3.256061791161526942e-02,-3.678228179984221330e-02
7.620023464998045837e-01,2.220484389718572205e-01,-3.500293312475571961e-02,2.570513720966129401e-01
7.639561986703168328e-01,4.196596295138689259e-01,-3.744524833789602408e-02,4.571048778517649569e-01
7.659100508408291930e-01,4.505050766505795945e-01,-3.988756355103647427e-02,4.903926402016160480e-01
7.678639030113415531e-01,3.010424663458557970e-01,-4.372780602268307171e-02,3.447702723685388548e-01
7.698177551818538022e-01,2.572972686398386499e-02,-4.763551036370756997e-02,7.336523722769143496e-02
7.717716073523661624e-01,-2.763488795320357960e-01,-5.154321470473228334e-02,-2.248056648273035196e-01
7.737254595228785226e-01,-4.963208687795732654e-01,-5.536023660539719088e-02,-4.409606321741760815e-01
7.756793116933907717e-01,-5.552634767244634117e-01,-5.902370942510765800e-02,-4.962397672993557607e-01
7.776331638639031318e-01,-4.331627449223043325e-01,-6.268718224481832635e-02,-3.704755626774859922e-01
7.795870160344153810e-01,-1.759012751429623322e-01,-6.635065506452879347e-02,-1.095506200784335527e-01
7.815408682049277411e-01,1.199754177859843896e-01,-7.136629839655875274e-02,1.913417161825431423e-01
7.834947203754401013e-01,3.425123809823004684e-01,-7.991440164255031453e-02,4.224267826248507829e-01
7.854485725459523504e-01,4.109352232140451866e-01,-8.846250488854139060e-02,4.993977281025865911e-01
7.874024247164647106e-01,2.971626056787773917e-01,-9.701060813453296627e-02,3.941732138133103303e-01
7.893562768869770707e-01,4.181035779031389010e-02,-1.033319808369180526e-01,1.451423386272319427e-01
7.913101290574893198e-01,-2.565093782166494862e-01,-9.966850801720758546e-02,-1.568408701994419008e-01
7.932639812280016800e-01,-4.976088009378150101e-01,-9.600503519749692405e-02,-4.016037657403180861e-01
7.952178333985140402e-01,-5.921909717258880823e-01,-9.234156237778624876e-02,-4.998494093481018474e-01
7.971716855690262893e-01,-5.049494131125552565e-01,-8.921460696128280521e-02,-4.157348061512724513e-01
7.991255377395386494e-01,-2.716044404419200586e-01,-9.165692217442325540e-02,-1.799475182674968032e-01
8.010793899100508986e-01,2.739085256406235958e-02,-9.409923738756356681e-02,1.214900899516259264e-01
8.030332420805632587e-01,2.820628706525320495e-01,-9.654155260070401701e-02,3.786044232532360665e-01
8.049870942510756189e-01,3.986084955222540804e-01,-9.898386781384446720e-02,4.975923633360985754e-01
8.069409464215878680e-01,3.324042210138793974e-01,-1.026392745404772072e-01,4.350434955543566184e-01
8.088947985921002282e-01,1.074747993549577119e-01,-1.063027473601879380e-01,2.137775467151456499e-01
8.108486507626125883e-01,-1.954471645600410201e-01,-1.099662201798986549e-01,-8.548094438014237906e-02
8.128025029331248374e-01,-4.671830835928746928e-01,-1.136296929996091776e-01,-3.535533905932655152e-01
8.147563551036371976e-01,-6.041297424749887401e-01,-1.114909212805182126e-01,-4.926388211944704998e-01
8.167102072741495578e-01,-5.606943504557954094e-01,-1.086997038940719917e-01,-4.519946465617233899e-01
8.186640594446618069e-01,-3.523575826225118779e-01,-1.059084865076259097e-01,-2.464490961148859682e-01
8.206179116151741670e-01,-5.499142983523016420e-02,-1.039999999999999952e-01,4.900857016476983102e-02
8.225717637856864162e-01,2.225864214768887295e-01,-1.039999999999999952e-01,3.265864214768887108e-01
8.245256159561987763e-01,3.810156265972678424e-01,-1.039999999999999952e-01,4.850156265972678238e-01
8.264794681267111365e-01,3.624963994173716619e-01,-1.039999999999999952e-01,4.664963994173716433e-01
8.284333202972233856e-01,1.745975920670910231e-01,-1.031875244427060689e-01,2.777851165097970920e-01
8.303871724677357458e-01,-1.117946658844388708e-01,-9.952405162299539365e-02,-1.227061426144347364e-02
8.323410246382481059e-01,-3.937102310494999813e-01,-9.586057880328471836e-02,-2.978496522462152907e-01
8.342948768087603550e-01,-5.669611962800865657e-01,-9.219710598357426512e-02,-4.747640902965122867e-01
8.362487289792727152e-01,-5.680919903142886973e-01,-8.962182244818187038e-02,-4.784701678661068547e-01
8.382025811497849643e-01,-4.021222481647738212e-01,-9.450645287446249321e-02,-3.076157952903113557e-01
8.401564333202973245e-01,-1.239249204644672087e-01,-9.939108330074339359e-02,-2.453383716372381854e-02
8.421102854908096846e-01,1.632230962165210353e-01,-1.042757137270242801e-01,2.674988099435453015e-01
8.440641376613219338e-01,3.521139938661258517e-01,-1.098257723895202514e-01,4.619397662556460893e-01
8.460179898318342939e-01,3.528694459343997281e-01,-1.349816190848668607e-01,4.878510650192665610e-01
8.479718420023466541e-01,1.756420116432953482e-01,-1.601374657802134838e-01,3.357794774235088320e-01
8.499256941728589032e-01,-1.240879748759337042e-01,-1.852933124755586636e-01,6.120533759962495934e-02
8.518795463433712634e-01,-4.461475275838987509e-01,-2.104491591709052867e-01,-2.356983684129934919e-01
8.538333985138836235e-01,-6.470879313676340949e-01,-2.004757807698742400e-01,-4.466121505977598827e-01
8.557872506843958726e-01,-6.827826792519038346e-01,-1.881944242695115510e-01,-4.945882549823923391e-01
8.577411028549082328e-01,-5.380366092448827242e-01,-1.759130677691481681e-01,-3.621235414757346116e-01
8.596949550254204819e-01,-2.294943690643946876e-01,-1.319492080563118008e-01,-9.754516100808290069e-02
8.616488071959328421e-01,1.720275302915042215e-01,-3.059312671098321501e-02,2.026206570024874365e-01
8.636026593664452022e-01,4.996272596344828454e-01,7.076295463434539856e-02,4.288643050001374468e-01
8.655565115369574514e-01,6.707642643190144804e-01,1.721190359796682390e-01,4.986452283393462137e-01
8.675103637074698115e-01,6.744619142058237982e-01,2.879566875244529145e-01,3.865052266813708837e-01
8.694642158779821717e-01,5.781097029455120051e-01,4.447533242080696780e-01,1.333563787374423271e-01
8.714180680484944208e-01,4.331050341955771654e-01,6.015499608916774488e-01,-1.684449266961002833e-01
8.733719202190067810e-01,3.495541909995021346e-01,7.583465975752943233e-01,-4.087924065757921888e-01
8.753257723895191411e-01,4.058994427063054022e-01,9.058994427063054022e-01,-5.000000000000000000e-01
8.772796245600313902e-01,5.984631174758330285e-01,1.007255524051628326e+00,-4.087924065757952974e-01
8.792334767305437504e-01,9.401666787008514659e-01,1.108611605396956801e+00,-1.684449266961053349e-01
8.811873289010559995e-01,1.343324065479716944e+00,1.209967686742279724e+00,1.333563787374371368e-01
8.831411810715683597e-01,1.688422805875734456e+00,1.301917579194366903e+00,3.865052266813674975e-01
8.850950332420807198e-01,1.771743488018653112e+00,1.273098259679309452e+00,4.986452283393437157e-01
8.870488854125929690e-01,1.673143245164393944e+00,1.244278940164253777e+00,4.288643050001402224e-01
8.890027375831053291e-01,1.418080277651688981e+00,1.215459620649196548e+00,2.026206570024923492e-01
8.909565897536176893e-01,1.089095140126089545e+00,1.186640301134139319e+00,-9.754516100804974665e-02
8.929104419241299384e-01,6.579409313998414444e-01,1.020064472875572337e+00,-3.621235414757308924e-01
8.948642940946422986e-01,3.557702007972503022e-01,8.503584557796418641e-01,-4.945882549823915619e-01
8.968181462651545477e-01,2.340402880859586698e-01,6.806524386837209395e-01,-4.466121505977622697e-01
8.987719984356669078e-01,2.894197387438200431e-01,5.251181071568182812e-01,-2.356983684129982382e-01
9.007258506061792680e-01,4.524845710763130691e-01,3.912792334767216662e-01,6.120533759959140285e-02
9.026797027766915171e-01,5.932198372201376024e-01,2.574403597966327673e-01,3.357794774235048352e-01
9.046335549472038773e-01,6.114525511358015475e-01,1.236014861165362078e-01,4.878510650192653952e-01
9.065874071177162374e-01,4.712336653561517430e-01,9.293899100503617144e-03,4.619397662556481432e-01
9.085412592882284866e-01,2.079194200334967269e-01,-5.957938991005311269e-02,2.674988099435498534e-01
9.104951114587408467e-01,-1.529865160843038030e-01,-1.284526789206137387e-01,-2.453383716369005041e-02
9.124489636292532069e-01,-5.049417632214814322e-01,-1.973259679311743786e-01,-3.076157952903070814e-01
9.144028157997654560e-01,-7.326856547648150642e-01,-2.542154868987098193e-01,-4.784701678661053004e-01
9.163566679702778162e-01,-7.397257641330506894e-01,-2.649616738365278001e-01,-4.747640902965228893e-01
9.183105201407900653e-01,-5.735575130205647909e-01,-2.757078607743451149e-01,-2.978496522462196205e-01
9.202643723113024254e-01,-2.987246619736119713e-01,-2.864540477121630957e-01,-1.227061426144885822e-02
9.222182244818147856e-01,-1.687825853909202811e-02,-2.946633750488846792e-01,2.777851165097926511e-01
9.241720766523270347e-01,1.838003689128725471e-01,-2.826960305044971533e-01,4.664963994173697004e-01
9.261259288228393949e-01,2.142869406371670782e-01,-2.707286859601089613e-01,4.850156265972760394e-01
9.280797809933517550e-01,6.782508006117199395e-02,-2.587613414157207692e-01,3.265864214768927631e-01
9.300336331638640042e-01,-1.977433852517281321e-01,-2.467519554165033269e-01,4.900857016477519479e-02
9.319874853343763643e-01,-4.787913917738557679e-01,-2.323422956589744903e-01,-2.464490961148812775e-01
9.339413375048886135e-01,-6.699272824631674617e-01,-2.179326359014464587e-01,-4.519946465617210585e-01
9.358951896754009736e-01,-6.961617973383914526e-01,-2.035229761439176221e-01,-4.926388211944738305e-01
9.378490418459133338e-01,-5.426667069796682341e-01,-1.891133163863887856e-01,-3.535533905932793930e-01
9.398028940164255829e-01,-2.644664742980195049e-01,-1.789855299178718107e-01,-8.548094438014768037e-02
9.417567461869379430e-01,4.456127764981793193e-02,-1.692162690653100099e-01,2.137775467151279418e-01
9.437105983574503032e-01,2.755964873416056893e-01,-1.594470082127482369e-01,4.350434955543539539e-01
9.456644505279625523e-01,3.466687712359808327e-01,-1.509235921001168823e-01,4.975923633360977427e-01
9.476183026984749125e-01,2.337866191859831466e-01,-1.448178040672657430e-01,3.786044232532488896e-01
9.495721548689872726e-01,-1.722192608278348691e-02,-1.387120160344146313e-01,1.214900899516311444e-01
9.515260070394995218e-01,-3.125537462690424206e-01,-1.326062280015638528e-01,-1.799475182674785401e-01
9.534798592100118819e-01,-5.434348941450120041e-01,-1.277000879937425504e-01,-4.157348061512694537e-01
9.554337113805241311e-01,-6.263283397352743531e-01,-1.264789303871723947e-01,-4.998494093481019585e-01
9.573875635510364912e-01,-5.268615385209318713e-01,-1.252577727806021834e-01,-4.016037657403297434e-01
9.593414157215488514e-01,-2.808774853734789523e-01,-1.240366151740319445e-01,-1.568408701994470078e-01
9.612952678920611005e-01,2.302814230339658708e-02,-1.221141963238165928e-01,1.451423386272131799e-01
9.632491200625734606e-01,2.779205740010187720e-01,-1.162526398122795263e-01,3.941732138132982843e-01
9.652029722330858208e-01,3.890066448018439371e-01,-1.103910833007424458e-01,4.993977281025863690e-01
9.671568244035980699e-01,3.178972558356555345e-01,-1.045295267892057123e-01,4.224267826248612745e-01
9.691106765741104301e-01,9.268758047664328592e-02,-9.865413570590482462e-02,1.913417161825481105e-01
9.710645287446227902e-01,-2.020989677514958838e-01,-9.254834767305369914e-02,-1.095506200784421708e-01
9.730183809151350394e-01,-4.569181223176757012e-01,-8.644255964020292060e-02,-3.704755626774727806e-01
9.749722330856473995e-01,-5.765765389067069036e-01,-8.033677160735180900e-02,-4.962397672993550946e-01
9.769260852561596487e-01,-5.151916157486864378e-01,-7.423098357450103046e-02,-4.409606321741853519e-01
9.788799374266720088e-01,-3.001484772749312135e-01,-7.534281244762287832e-02,-2.248056648273083491e-01
9.808337895971843690e-01,-3.373183913159882863e-03,-7.673842114084598875e-02,7.336523722768610589e-02
9.827876417676966181e-01,2.666362425344556142e-01,-7.813402983406902980e-02,3.447702723685246440e-01
9.847414939382089782e-01,4.132463750471374597e-01,-7.714626515447751964e-02,4.903926402016149932e-01
9.866953461087213384e-01,3.848432431235763174e-01,-7.226163472819661926e-02,4.571048778517729505e-01
9.886491982792335875e-01,1.896743677947015372e-01,-6.737700430191601031e-02,2.570513720966175475e-01
9.906030504497459477e-01,-9.927465567547194558e-02,-6.249237387563510993e-02,-3.678228179983684260e-02
9.925569026202581968e-01,-3.755005138064888559e-01,-5.830387172467724199e-02,-3.171966420818116417e-01
9.945107547907705570e-01,-5.377495894092558792e-01,-5.586155651153679874e-02,-4.818880328977190319e-01
9.964646069612829171e-01,-5.241912738899041635e-01,-5.341924129839634855e-02,-4.707720325915078496e-01
9.984184591317951663e-01,-3.388810217941868319e-01,-5.097692608525604407e-02,-2.879040957089307740e-01
1.000372311302307526e+00,-4.834845522096084536e-02,-4.834845522096183068e-02,9.821933618642359708e-16
1.002326163472819776e+00,2.429748817863437715e-01,-4.492921392256540164e-02,2.879040957089091801e-01
1.004280015643332247e+00,4.292620599673399595e-01,-4.150997262416857708e-02,4.707720325915085158e-01
1.006233867813844496e+00,4.437973015719463010e-01,-3.809073132577214804e-02,4.818880328977184768e-01
1.008187719984356745e+00,2.826659420427239944e-01,-3.453070003910815866e-02,3.171966420818321253e-01
1.010141572154869216e+00,7.136212187007894697e-03,-2.964606961282698419e-02,3.678228179983487889e-02
1.012095424325381465e+00,-2.818128112831412291e-01,-2.476143918654636483e-02,-2.570513720965948434e-01
1.014049276495893714e+00,-4.769816866120279442e-01,-1.987680876026574547e-02,-4.571048778517621813e-01
1.016003128666406186e+00,-5.053904054398958845e-01,-1.499776523828130585e-02,-4.903926402016146047e-01
1.017956980836918435e+00,-3.583724289136020480e-01,-1.360215654505824920e-02,-3.447702723685437953e-01
1.019910833007430684e+00,-8.557178507951936075e-02,-1.220654785183519428e-02,-7.336523722768416300e-02
1.021864685177942933e+00,2.139947256686979549e-01,-1.081093915861213936e-02,2.248056648273100977e-01
1.023818537348455404e+00,4.360764906020196952e-01,-4.884141572153162351e-03,4.409606321741728618e-01
1.025772389518967653e+00,5.035672017929032629e-01,7.327434493548385178e-03,4.962397672993548725e-01
1.027726241689479902e+00,3.900145732367404916e-01,1.953901055924993357e-02,3.704755626774905442e-01
1.029680093859992374e+00,1.413012067033931340e-01,3.175058662495286455e-02,1.095506200784402556e-01
1.031633946030504623e+00,-1.506285268982321124e-01,4.071318928431779532e-02,-1.913417161825499146e-01
1.033587798201016872e+00,-3.795155096487030644e-01,4.291127297614407560e-02,-4.224267826248471192e-01
1.035541650371529343e+00,-4.542883714346156454e-01,4.510935666797059873e-02,-4.993977281025862580e-01
1.037495502542041592e+00,-3.468657734535176562e-01,4.730744035979687900e-02,-3.941732138133145491e-01
1.039449354712553841e+00,-9.501895184585369691e-02,5.012338678138479608e-02,-1.451423386272384930e-01
1.041403206883066312e+00,2.118488874071148276e-01,5.500801720766596709e-02,1.568408701994488674e-01
1.043357059053578562e+00,4.614964133742605612e-01,5.989264763394658991e-02,4.016037657403139782e-01
1.045310911224090811e+00,5.646266874083292198e-01,6.477727806022720580e-02,4.998494093481020140e-01
1.047264763394603282e+00,4.857276688810309162e-01,6.999286272976257273e-02,4.157348061512683435e-01
1.049218615565115531e+00,2.572673266366867217e-01,7.731980836918349309e-02,1.799475182675032148e-01
1.051172467735627780e+00,-3.684333594302863224e-02,8.464675400860442733e-02,-1.214900899516330596e-01
1.053126319906140251e+00,-2.866307236052054730e-01,9.197369964802618036e-02,-3.786044232532316256e-01
1.055080172076652500e+00,-3.983017395582323372e-01,9.929062377786554427e-02,-4.975923633360979093e-01
1.057034024247164750e+00,-3.286701576583804796e-01,1.063733378959724474e-01,-4.350434955543529547e-01
1.058987876417676999e+00,-1.003214947010725028e-01,1.134560520140793366e-01,-2.137775467151518394e-01
1.060941728588189470e+00,2.060197105123366401e-01,1.205387661321870307e-01,8.548094438014960939e-02
1.062895580758701719e+00,4.811748708435545918e-01,1.276214802502939338e-01,3.535533905932606857e-01
1.064849432929213968e+00,6.285649623196721825e-01,1.359261411252028207e-01,4.926388211944693341e-01
1.066803285099726439e+00,5.962944398462620699e-01,1.442997932845418441e-01,4.519946465617202258e-01
1.068757137270238688e+00,3.991225415587842384e-01,1.526734454438799238e-01,2.464490961149042869e-01
1.070710989440750938e+00,1.112132718375693358e-01,1.602218420023464873e-01,-4.900857016477715156e-02
1.072664841611263409e+00,-1.602587914416747639e-01,1.663276300351979597e-01,-3.265864214768727236e-01
1.074618693781775658e+00,-3.125822085292209174e-01,1.724334180680487105e-01,-4.850156265972696557e-01
1.076572545952287907e+00,-2.879571933164695174e-01,1.785392061008994891e-01,-4.664963994173689787e-01
1.078526398122800378e+00,-9.221892566116313139e-02,1.855661908486515022e-01,-2.777851165098146335e-01
1.080480250293312627e+00,2.073618344413495351e-01,1.950912201798987167e-01,1.227061426145082193e-02
1.082434102463824876e+00,5.024659017573670505e-01,2.046162495111459034e-01,2.978496522462211749e-01
1.084387954634337348e+00,6.889053691389088740e-01,2.141412788423942004e-01,4.747640902965146181e-01
1.086341806804849597e+00,7.019655726373212890e-01,2.234954047712166547e-01,4.784701678661046897e-01
1.088295658975361846e+00,5.396593033075356427e-01,2.320435080172077447e-01,3.076157952903279535e-01
1.090249511145874317e+00,2.651254484269162659e-01,2.405916112631997783e-01,2.453383716371647719e-02
1.092203363316386566e+00,-1.835909543436065050e-02,2.491397145091908683e-01,-2.674988099435515188e-01
1.094157215486898815e+00,-2.048415065763262710e-01,2.570982596793117136e-01,-4.619397662556379847e-01
1.096111067657411287e+00,-2.295316477333829153e-01,2.583194172858820359e-01,-4.878510650192649512e-01
1.098064919827923536e+00,-7.623890253107223902e-02,2.595405748924521916e-01,-3.357794774235244306e-01
1.100018771998435785e+00,1.995563948994046877e-01,2.607617324990223473e-01,-6.120533759961765963e-02
1.101972624168948034e+00,4.976812585185924620e-01,2.619828901055925030e-01,2.356983684129999868e-01
1.103926476339460505e+00,7.127403141823085431e-01,2.661281635845580973e-01,4.466121505977503903e-01
1.105880328509972754e+00,7.649032446466185187e-01,2.703149896642272898e-01,4.945882549823912289e-01
1.107834180680485003e+00,6.366253572196258759e-01,2.745018157438964268e-01,3.621235414757295046e-01
1.109788032850997475e+00,3.750376815399491526e-01,2.774925205318734545e-01,9.754516100807569812e-02
1.111741885021509724e+00,7.609302113594945682e-02,2.787136781384436102e-01,-2.026206570024941533e-01
1.113695737192021973e+00,-1.489294692551129118e-01,2.799348357450137104e-01,-4.288643050001266221e-01
1.115649589362534444e+00,-2.174892349877616260e-01,2.811559933515840326e-01,-4.986452283393456586e-01
1.117603441533046693e+00,-1.045052266813662478e-01,2.819999999999999729e-01,-3.865052266813662207e-01
1.119557293703558942e+00,1.486436212625373288e-01,2.819999999999999729e-01,-1.333563787374626441e-01
1.121511145874071413e+00,4.504449266961071396e-01,2.819999999999999729e-01,1.684449266961071945e-01
1.123464998044583663e+00,6.907924065757800047e-01,2.819999999999999729e-01,4.087924065757800318e-01
1.125418850215095912e+00,7.812146558466951385e-01,2.812146558466951385e-01,5.000000000000000000e-01
1.127372702385608383e+00,6.863435896027754168e-01,2.775511830269842828e-01,4.087924065757910785e-01
1.129326554556120632e+00,4.423326369033989680e-01,2.738877102072738157e-01,1.684449266961251801e-01
1.131280406726632881e+00,1.368678586501191341e-01,2.702242373875633485e-01,-1.333563787374442144e-01
1.133234258897145352e+00,-1.202372857349513491e-01,2.662679409464208113e-01,-3.865052266813721604e-01
1.135188111067657601e+00,-2.384830754257742380e-01,2.601621529135700328e-01,-4.986452283393442708e-01
1.137141963238169851e+00,-1.748079401194171933e-01,2.540563648807192543e-01,-4.288643050001364476e-01
1.139095815408682100e+00,4.532991984535683638e-02,2.479505768478684757e-01,-2.026206570025116394e-01
1.141049667579194571e+00,3.394387304812114814e-01,2.418935694731545183e-01,9.754516100805696310e-02
1.143003519749706820e+00,5.998302848692212974e-01,2.377067433934853535e-01,3.621235414757359439e-01
1.144957371920219069e+00,7.281081722962046143e-01,2.335199173138161888e-01,4.945882549823884533e-01
1.146911224090731540e+00,6.759452418319055189e-01,2.293330912341465522e-01,4.466121505977589945e-01
1.148865076261243789e+00,4.573997763128980765e-01,2.217014078998812421e-01,2.356983684130168344e-01
1.150818928431756039e+00,1.485287257558950136e-01,2.097340633554937162e-01,-6.120533759959869563e-02
1.152772780602268510e+00,-1.380127586124054173e-01,1.977667188111048580e-01,-3.357794774235102753e-01
1.154726632772780759e+00,-3.020516907525434558e-01,1.857993742667173320e-01,-4.878510650192607878e-01
1.156680484943293008e+00,-2.873421909721107781e-01,1.745975752835345340e-01,-4.619397662556453121e-01
1.158634337113805479e+00,-1.026704955125714303e-01,1.648283144309722059e-01,-2.674988099435436362e-01
1.160588189284317728e+00,1.795928907421083520e-01,1.550590535784109603e-01,2.453383716369739176e-02
1.162542041454829977e+00,4.529055880161625969e-01,1.452897927258497424e-01,3.076157952903128545e-01
1.164495893625342449e+00,6.137427529267152071e-01,1.352725850606161240e-01,4.784701678660991386e-01
1.166449745795854698e+00,5.992904884193194226e-01,1.245263981227987676e-01,4.747640902965206133e-01
1.168403597966366947e+00,4.116298634311950644e-01,1.137802111849813974e-01,2.978496522462136809e-01
1.170357450136879418e+00,1.153046385086327480e-01,1.030340242471628198e-01,1.227061426146992297e-02
1.172311302307391667e+00,-1.857307559309971101e-01,9.205436057880164724e-02,-2.777851165097987574e-01
1.174265154477903916e+00,-3.866536149042620329e-01,7.984278451310010405e-02,-4.664963994173621509e-01
1.176219006648416165e+00,-4.173844181498757022e-01,6.763120844739856086e-02,-4.850156265972742631e-01
1.178172858818928637e+00,-2.711667890951915960e-01,5.541963238169562295e-02,-3.265864214768872120e-01
1.180126710989440886e+00,-5.626286238320787891e-03,4.338228392647537623e-02,-4.900857016479616413e-02
1.182080563159953135e+00,2.803063507101158369e-01,3.385725459522816866e-02,2.464490961148876613e-01
1.184034415330465606e+00,4.763268718257041012e-01,2.433222526397988209e-02,4.519946465617242226e-01
1.185988267500977855e+00,5.074460171272052733e-01,1.480719593273267798e-02,4.926388211944726092e-01
1.187942119671490104e+00,3.588355571947596245e-01,5.282166601485470403e-03,3.535533905932741749e-01
1.189895971842002576e+00,7.964681956872501911e-02,-5.834124811443421564e-03,8.548094438016844154e-02
1.191849824012514825e+00,-2.307765410723620902e-01,-1.699899435722751484e-02,-2.137775467151345754e-01
1.193803676183027074e+00,-4.632073594573691833e-01,-2.816386390301161072e-02,-4.350434955543575621e-01
1.195757528353539545e+00,-5.325923633360998277e-01,-3.500000000000000333e-02,-4.975923633360997966e-01
1.197711380524051794e+00,-4.136044232532440912e-01,-3.500000000000000333e-02,-3.786044232532440601e-01
1.199665232694564043e+00,-1.564900899516515898e-01,-3.500000000000000333e-02,-1.214900899516515864e-01
1.201619084865076514e+00,1.449475182674853924e-01,-3.500000000000000333e-02,1.799475182674853957e-01
1.203572937035588764e+00,3.797321663389933155e-01,-3.600263981228021826e-02,4.157348061512735060e-01
1.205526789206101013e+00,4.604275282374258871e-01,-3.942188111067664730e-02,4.998494093481025136e-01
1.207480641376613484e+00,3.587626433312519625e-01,-4.284112240907347186e-02,4.016037657403254135e-01
1.209434493547125733e+00,1.105805064919701125e-01,-4.626036370746990090e-02,1.568408701994400134e-01
1.211388345717637982e+00,-1.951132029213149544e-01,-4.997086429409476616e-02,-1.451423386272202021e-01
1.213342197888150231e+00,-4.490287085336781558e-01,-5.485549472037538205e-02,-3.941732138133027807e-01
1.215296050058662702e+00,-5.591378532492419229e-01,-5.974012514665655998e-02,-4.993977281025853143e-01
1.217249902229174952e+00,-4.870515381977945091e-01,-6.462475557293717587e-02,-4.224267826248573332e-01
1.219203754399687201e+00,-2.603417161825413162e-01,-6.900000000000000577e-02,-1.913417161825413104e-01
1.221157606570199672e+00,4.055062007842159810e-02,-6.900000000000000577e-02,1.095506200784216039e-01
1.223111458740711921e+00,3.014755626774777153e-01,-6.900000000000000577e-02,3.704755626774777211e-01
1.225065310911224170e+00,4.272397672993525353e-01,-6.900000000000000577e-02,4.962397672993525410e-01
1.227019163081736641e+00,3.719195684276035418e-01,-6.904106374657832668e-02,4.409606321741818546e-01
1.228973015252248890e+00,1.515777750010542935e-01,-7.322788982624749143e-02,2.248056648273017710e-01
1.230926867422761140e+00,-1.507799531335819454e-01,-7.741471590591667007e-02,-7.336523722766527533e-02
1.232880719593273611e+00,-4.263718143541163075e-01,-8.160154198558630667e-02,-3.447702723685299731e-01
1.234834571763785860e+00,-5.743926402016164001e-01,-8.400000000000000522e-02,-4.903926402016164365e-01
1.236788423934298109e+00,-5.411048778517699720e-01,-8.400000000000000522e-02,-4.571048778517699529e-01
1.238742276104810580e+00,-3.410513720966112938e-01,-8.400000000000000522e-02,-2.570513720966112747e-01
1.240696128275322829e+00,-4.721771820018418053e-02,-8.400000000000000522e-02,3.678228179981582469e-02
1.242649980445835078e+00,2.327904043031704395e-01,-8.440623777864693367e-02,3.171966420818173593e-01
1.244603832616347550e+00,3.962606375125037328e-01,-8.562739538521722815e-02,4.818880328977209748e-01
1.246557684786859799e+00,3.839234795997276128e-01,-8.684855299178736998e-02,4.707720325915149551e-01
1.248511536957372048e+00,1.998343851105672531e-01,-8.806971059835752569e-02,2.879040957089247788e-01
1.250465389127884297e+00,-8.929086820490758636e-02,-8.929086820492768140e-02,2.008854037047270948e-14
1.252419241298396768e+00,-3.784161215204131512e-01,-9.051202581149797588e-02,-2.879040957089151753e-01
1.254373093468909017e+00,-5.625052160095791454e-01,-9.173318341806813159e-02,-4.707720325915110138e-01
1.256326945639421266e+00,-5.748423739223624818e-01,-9.295434102463828729e-02,-4.818880328977241390e-01
1.258280797809933738e+00,-4.104946475569920539e-01,-9.329800547516567399e-02,-3.171966420818264076e-01
1.260234649980445987e+00,-1.251956568487125887e-01,-8.841337504888505117e-02,-3.678228179982755142e-02
1.262188502150958236e+00,1.735226274739967434e-01,-8.352874462260442834e-02,2.570513720966011717e-01
1.264142354321470707e+00,3.784607636554419008e-01,-7.864411419632326428e-02,4.571048778517651789e-01
1.266096206491982956e+00,4.163239212787737675e-01,-7.406871892284495884e-02,4.903926402016187125e-01
1.268050058662495205e+00,2.693059447524704386e-01,-7.546432761606801376e-02,3.447702723685384663e-01
1.270003910833007676e+00,-3.494699081614344172e-03,-7.685993630929123521e-02,7.336523722767689104e-02
1.271957763003519926e+00,-3.030612098298055557e-01,-7.825554500251429013e-02,-2.248056648272912794e-01
1.273911615174032175e+00,-5.199606321741763182e-01,-7.900000000000000078e-02,-4.409606321741763035e-01
1.275865467344544646e+00,-5.752397672993574407e-01,-7.900000000000000078e-02,-4.962397672993574260e-01
1.277819319515056895e+00,-4.494755626774856738e-01,-7.900000000000000078e-02,-3.704755626774856592e-01
1.279773171685569144e+00,-1.885506200784330955e-01,-7.900000000000000078e-02,-1.095506200784330808e-01
1.281727023856081615e+00,1.114329363624283337e-01,-7.990877982010212432e-02,1.913417161825304580e-01
1.283680876026593864e+00,3.400756875916085553e-01,-8.235109503324243574e-02,4.224267826248510049e-01
1.285634728197106114e+00,4.146043178562031084e-01,-8.479341024638273328e-02,4.993977281025858694e-01
1.287588580367618585e+00,3.069374883537867582e-01,-8.723572545952332224e-02,3.941732138133100527e-01
1.289542432538130834e+00,5.682037929989511293e-02,-8.832195932733635790e-02,1.451423386272314708e-01
1.291496284708643083e+00,-2.427205143136249021e-01,-8.587964411419604649e-02,-1.568408701994288557e-01
1.293450136879155332e+00,-4.850410946413741264e-01,-8.343732890105574895e-02,-4.016037657403183636e-01
1.295403989049667803e+00,-5.808444230360173544e-01,-8.099501368791515998e-02,-4.998494093481022360e-01
1.297357841220180052e+00,-4.951821076765052232e-01,-7.944730152522515298e-02,-4.157348061512800563e-01
1.299311693390692302e+00,-2.618371350058618097e-01,-8.188961673836546440e-02,-1.799475182674963591e-01
1.301265545561204773e+00,3.715815800010657810e-02,-8.433193195150603949e-02,1.214900899516126176e-01
1.303219397731717022e+00,2.918301760885900764e-01,-8.677424716464635090e-02,3.786044232532363996e-01
1.305173249902229271e+00,4.088089257138852739e-01,-8.878343762221332924e-02,4.975923633360986309e-01
1.307127102072741742e+00,3.487023731452906228e-01,-8.634112240907274027e-02,4.350434955543633908e-01
1.309080954243253991e+00,1.298787395192127769e-01,-8.389880719593242886e-02,2.137775467151452058e-01
1.311034806413766240e+00,-1.669374363629209934e-01,-8.145649198279213132e-02,-8.548094438012886209e-02
1.312988658584278712e+00,-4.325675673629174600e-01,-7.901417676965154235e-02,-3.535533905932659038e-01
1.314942510754790961e+00,-5.674762981484899882e-01,-7.483747695401932187e-02,-4.926388211944706108e-01
1.316896362925303210e+00,-5.226452974360794590e-01,-7.065065087435028202e-02,-4.519946465617292186e-01
1.318850215095815681e+00,-3.129129209095786734e-01,-6.646382479468077031e-02,-2.464490961148979031e-01
1.320804067266327930e+00,-1.549397187667045372e-02,-6.450254204145491888e-02,4.900857016478446515e-02
1.322757919436840179e+00,2.608627218288532834e-01,-6.572369964802507458e-02,3.265864214768783302e-01
1.324711771607352651e+00,4.180707693426760629e-01,-6.694485725459536907e-02,4.850156265972714320e-01
1.326665623777864900e+00,3.983303845562110590e-01,-6.816601486116552477e-02,4.664963994173765838e-01
1.328619475948377149e+00,2.091722889775441963e-01,-6.861282753226433107e-02,2.777851165098085273e-01
1.330573328118889398e+00,-7.966228418715234905e-02,-6.739166992569417536e-02,-1.227061426145817195e-02
1.332527180289401869e+00,-3.640201645653281526e-01,-6.617051231912388087e-02,-2.978496522462042440e-01
1.334481032459914118e+00,-5.397134450090705915e-01,-6.494935471255372517e-02,-4.747640902965168941e-01
1.336434884630426367e+00,-5.427419707601272014e-01,-6.427180289401643321e-02,-4.784701678661107960e-01
1.338388736800938839e+00,-3.731087557909088526e-01,-6.549296050058672769e-02,-3.076157952903221249e-01
1.340342588971451088e+00,-9.124795527086601576e-02,-6.671411810715688340e-02,-2.453383716370913584e-02
1.342296441141963337e+00,1.995635342298067161e-01,-6.793527571372703910e-02,2.674988099435337552e-01
1.344250293312475808e+00,3.930961995759381100e-01,-6.884356667970267796e-02,4.619397662556408157e-01
1.346204145482988057e+00,4.202286559461307913e-01,-6.762240907313252225e-02,4.878510650192633413e-01
1.348157997653500306e+00,2.693782259569565962e-01,-6.640125146656236654e-02,3.357794774235189905e-01
1.350111849824012777e+00,-3.974756260381705208e-03,-6.518009385999207206e-02,6.120533759961036685e-02
1.352065701994525027e+00,-2.996514384168921241e-01,-6.395307000391076135e-02,-2.356983684129813905e-01
1.354019554165037276e+00,-5.091696119084413441e-01,-6.255746131068770644e-02,-4.466121505977536654e-01
1.355973406335549747e+00,-5.557501075998546591e-01,-6.116185261746448498e-02,-4.945882549823901742e-01
1.357927258506061996e+00,-4.218897853999855618e-01,-5.976624392424143006e-02,-3.621235414757441040e-01
1.359881110676574245e+00,-1.581972435266452148e-01,-6.065208251857673316e-02,-9.754516100806848167e-02
1.361834962847086716e+00,1.383051016641872744e-01,-6.431555533828761662e-02,2.026206570024748910e-01
1.363788815017598965e+00,3.608852768421323409e-01,-6.797902815799806986e-02,4.288643050001303969e-01
1.365742667188111215e+00,4.270027273616365804e-01,-7.164250097770853698e-02,4.986452283393451035e-01
1.367696519358623464e+00,3.146818496770779627e-01,-7.182337700430165006e-02,3.865052266813795989e-01
1.369650371529135935e+00,6.763878976600534720e-02,-6.571758897145019152e-02,1.333563787374555387e-01
1.371604223699648184e+00,-2.280567276347135186e-01,-5.961180093859941298e-02,-1.684449266961141056e-01
1.373558075870160433e+00,-4.622984194815329406e-01,-5.350601290574864832e-02,-4.087924065757843062e-01
1.375511928040672904e+00,-5.486800449745794506e-01,-4.868004497457943669e-02,-5.000000000000000000e-01
1.377465780211185153e+00,-4.562512939438124748e-01,-4.745888736800928098e-02,-4.087924065758031800e-01
1.379419632381697403e+00,-2.146826564575574081e-01,-4.623772976143912528e-02,-1.684449266961182690e-01
1.381373484552209874e+00,8.833980658258246133e-02,-4.501657215486883079e-02,1.333563787374512921e-01
1.383327336722722123e+00,3.418914703262548316e-01,-4.461375635510396453e-02,3.865052266813587822e-01
1.385281188893234372e+00,4.503679991645303526e-01,-4.827722917481442472e-02,4.986452283393447704e-01
1.387235041063746843e+00,3.769236030056219433e-01,-5.194070199452530817e-02,4.288643050001472723e-01
1.389188893234259092e+00,1.470164821882691264e-01,-5.560417481423576835e-02,2.026206570025048948e-01
1.391142745404771341e+00,-1.565451610080641487e-01,-5.899999999999999689e-02,-9.754516100806416568e-02
1.393096597575283813e+00,-4.211235414757214524e-01,-5.899999999999999689e-02,-3.621235414757214555e-01
1.395050449745796062e+00,-5.535882549823895049e-01,-5.899999999999999689e-02,-4.945882549823895080e-01
1.397004301916308311e+00,-5.056121505977556607e-01,-5.899999999999999689e-02,-4.466121505977556638e-01
1.398958154086820782e+00,-2.952972147172733819e-01,-5.959884630426304231e-02,-2.356983684130103396e-01
1.400912006257333031e+00,3.853336887727973337e-04,-6.082000391083319801e-02,6.120533759960599535e-02
1.402865858427845280e+00,2.737383159060913229e-01,-6.204116151740335372e-02,3.357794774234946766e-01
1.404819710598357529e+00,4.245887458952888882e-01,-6.326231912397350943e-02,4.878510650192623976e-01
1.406773562768870001e+00,3.984232429861862546e-01,-6.351652326945619875e-02,4.619397662556424811e-01
1.408727414939382250e+00,2.052034442806754122e-01,-6.229536566288604305e-02,2.674988099435614552e-01
1.410681267109894499e+00,-8.560804522002062045e-02,-6.107420805631588734e-02,-2.453383716370473658e-02
1.412635119280406970e+00,-3.674688457400418495e-01,-5.985305044974559285e-02,-3.076157952902962567e-01
1.414588971450919219e+00,-5.385744893365749242e-01,-6.010432147047367613e-02,-4.784701678661013036e-01
1.416542823621431468e+00,-5.385318845867024251e-01,-6.376779429018414325e-02,-4.747640902965182819e-01
1.418496675791943940e+00,-3.652809193561256107e-01,-6.743126710989501282e-02,-2.978496522462306118e-01
1.420450527962456189e+00,-8.336535419106805289e-02,-7.109473992960547994e-02,-1.227061426146257468e-02
1.422404380132968438e+00,2.047960668422261210e-01,-7.298904966757872870e-02,2.777851165098048636e-01
1.424358232303480909e+00,3.983919801760671953e-01,-6.810441924129755076e-02,4.664963994173647599e-01
1.426312084473993158e+00,4.217958377822555449e-01,-6.321978881501694181e-02,4.850156265972724867e-01
1.428265936644505407e+00,2.682512630881668247e-01,-5.833515838873631898e-02,3.265864214769031437e-01
1.430219788815017878e+00,-5.128797844597361710e-03,-5.413736800938621224e-02,4.900857016478885053e-02
1.432173640985530128e+00,-3.018076217308504616e-01,-5.535852561595636795e-02,-2.464490961148940729e-01
1.434127493156042377e+00,-5.085743297842416633e-01,-5.657968322252651672e-02,-4.519946465617151743e-01
1.436081345326554848e+00,-5.504396620235680881e-01,-5.780084082909681120e-02,-4.926388211944713325e-01
1.438035197497067097e+00,-4.125785316626227606e-01,-5.902514106933367394e-02,-3.535533905932891074e-01
1.439989049667579346e+00,-1.459016941427178915e-01,-6.042074976255668722e-02,-8.548094438016119734e-02
1.441942901838091817e+00,1.519611882593613905e-01,-6.181635845577986010e-02,2.137775467151412367e-01
1.443896754008604066e+00,3.718315284053442804e-01,-6.321196714900287339e-02,4.350434955543471816e-01
1.445850606179116316e+00,4.335923633360990737e-01,-6.400000000000000133e-02,4.975923633360990750e-01
1.447804458349628565e+00,3.146044232532392848e-01,-6.400000000000000133e-02,3.786044232532392861e-01
1.449758310520141036e+00,5.749008995164445190e-02,-6.400000000000000133e-02,1.214900899516444532e-01
1.451712162690653285e+00,-2.439475182674922527e-01,-6.400000000000000133e-02,-1.799475182674922513e-01
1.453666014861165534e+00,-4.789022875748050190e-01,-6.316748142354317030e-02,-4.157348061512618487e-01
1.455619867031678005e+00,-5.605745755585048729e-01,-6.072516621040258133e-02,-4.998494093481022915e-01
1.457573719202190254e+00,-4.598866167375832981e-01,-5.828285099726227686e-02,-4.016037657403210281e-01
1.459527571372702504e+00,-2.126814059835819837e-01,-5.584053578412196545e-02,-1.568408701994600252e-01
1.461481423543214975e+00,9.054055919820863663e-02,-5.460177942901862230e-02,1.451423386272272520e-01
1.463435275713727224e+00,3.371291191711309199e-01,-5.704409464215893372e-02,3.941732138132898466e-01
1.465389127884239473e+00,4.399113182472864092e-01,-5.948640985529923819e-02,4.993977281025856474e-01
1.467342980054751944e+00,3.604980575564135648e-01,-6.192872506843982716e-02,4.224267826248533919e-01
1.469296832225264193e+00,1.269706759009806563e-01,-6.437104028158013858e-02,1.913417161825607948e-01
1.471250684395776442e+00,-1.763639755731492287e-01,-6.681335549472044999e-02,-1.095506200784287787e-01
1.473204536566288914e+00,-4.397312333853437005e-01,-6.925567070786102508e-02,-3.704755626774826616e-01
1.475158388736801163e+00,-5.679377532203547796e-01,-7.169798592100133650e-02,-4.962397672993534292e-01
1.477112240907313412e+00,-5.145597717909164981e-01,-7.359913961673812677e-02,-4.409606321741784130e-01
1.479066093077825883e+00,-2.914267609779426227e-01,-6.662109615062206114e-02,-2.248056648273205893e-01
1.481019945248338132e+00,1.372218454316576769e-02,-5.964305268450677960e-02,7.336523722767254729e-02
1.482973797418850381e+00,2.921052631501437902e-01,-5.266500921839149807e-02,3.447702723685353021e-01
1.484927649589362630e+00,4.408128592082606878e-01,-4.957978099335165478e-02,4.903926402016123287e-01
1.486881501759875102e+00,4.063039392518449922e-01,-5.080093859992194927e-02,4.571048778517669553e-01
1.488835353930387351e+00,2.050292758901372248e-01,-5.202209620649209804e-02,2.570513720966293159e-01
1.490789206100899600e+00,-9.002553561288541284e-02,-5.324325381306225374e-02,-3.678228179982315910e-02
1.492743058271412071e+00,-3.725898763407206604e-01,-5.539323425889764591e-02,-3.171966420818230215e-01
1.494696910441924320e+00,-5.409447399763235298e-01,-5.905670707860811303e-02,-4.818880328977153682e-01
1.496650762612436569e+00,-5.334922124898310303e-01,-6.272017989831857321e-02,-4.707720325915124571e-01
1.498604614782949040e+00,-3.542877484269482125e-01,-6.638365271802945666e-02,-2.879040957089187835e-01
1.500558466953461290e+00,-6.830191630818613358e-02,-6.830191630817339377e-02,-1.273756467240564966e-14
1.502512319123973539e+00,2.220444946138880882e-01,-6.585960109503308235e-02,2.879040957089211705e-01
1.504466171294486010e+00,4.073547467096114150e-01,-6.341728588189249338e-02,4.707720325915039083e-01
1.506420023464998259e+00,4.209130622289699586e-01,-6.097497066875218197e-02,4.818880328977221406e-01
1.508373875635510508e+00,2.579629698096266854e-01,-5.923367227219406006e-02,3.171966420818207455e-01
1.510327727806022979e+00,-2.367254807891579216e-02,-6.045482987876435454e-02,3.678228179984856239e-02
1.512281579976535228e+00,-3.187273595819419825e-01,-6.167598748533451025e-02,-2.570513720966075000e-01
1.514235432147047478e+00,-5.200020229436612684e-01,-6.289714509190466596e-02,-4.571048778517566302e-01
1.516189284317559949e+00,-5.543926402016172705e-01,-6.400000000000000133e-02,-4.903926402016172692e-01
1.518143136488072198e+00,-4.087702723685331385e-01,-6.400000000000000133e-02,-3.447702723685331372e-01
1.520096988658584447e+00,-1.373652372276977229e-01,-6.400000000000000133e-02,-7.336523722769773548e-02
1.522050840829096696e+00,1.608056648272978284e-01,-6.400000000000000133e-02,2.248056648272978297e-01
1.524004692999609167e+00,3.763326990494240132e-01,-6.462793312475578755e-02,4.409606321741798007e-01
1.525958545170121416e+00,4.303906765680305946e-01,-6.584909073132594326e-02,4.962397672993565378e-01
1.527912397340633666e+00,3.034053143395845642e-01,-6.707024833789609897e-02,3.704755626774806632e-01
1.529866249511146137e+00,4.125921413398724036e-02,-6.829140594446639345e-02,1.095506200784536338e-01
1.531820101681658386e+00,-2.593165890804641771e-01,-6.797487289792691900e-02,-1.913417161825372581e-01
1.533773953852170635e+00,-4.879593403096415538e-01,-6.553255768478660759e-02,-4.224267826248549462e-01
1.535727806022683106e+00,-5.624879705742329428e-01,-6.309024247164601862e-02,-4.993977281025869241e-01
1.537681658193195355e+00,-4.548211410718112080e-01,-6.064792725850570720e-02,-3.941732138133055008e-01
1.539635510363707604e+00,-2.041423386272516183e-01,-5.899999999999999689e-02,-1.451423386272516214e-01
1.541589362534220076e+00,9.784087019943585317e-02,-5.899999999999999689e-02,1.568408701994358501e-01
1.543543214704732325e+00,3.426037657403227521e-01,-5.899999999999999689e-02,4.016037657403227490e-01
1.545497066875244574e+00,4.408494093481016840e-01,-5.899999999999999689e-02,4.998494093481016809e-01
1.547450919045757045e+00,3.564529817476777551e-01,-5.928182440359819338e-02,4.157348061512759485e-01
1.549404771216269294e+00,1.194445362573476610e-01,-6.050298201016834909e-02,1.799475182675160101e-01
1.551358623386781543e+00,-1.832142295683582556e-01,-6.172413961673850480e-02,-1.214900899516197508e-01
1.553312475557294015e+00,-4.415497204765500561e-01,-6.294529722330879928e-02,-3.786044232532412290e-01
1.555266327727806264e+00,-5.615923633360966338e-01,-6.400000000000000133e-02,-4.975923633360965770e-01
1.557220179898318513e+00,-4.990434955543597284e-01,-6.400000000000000133e-02,-4.350434955543597271e-01
1.559174032068830762e+00,-2.777775467151385458e-01,-6.400000000000000133e-02,-2.137775467151385722e-01
1.561127884239343233e+00,2.148094438013609109e-02,-6.400000000000000133e-02,8.548094438013609242e-02
1.563081736409855482e+00,2.894950074433742526e-01,-6.405838314989681370e-02,3.535533905932710663e-01
1.565035588580367731e+00,4.271848293513471617e-01,-6.545399184311982699e-02,4.926388211944670026e-01
1.566989440750880203e+00,3.851450460253831309e-01,-6.684960053634299293e-02,4.519946465617261100e-01
1.568943292921392452e+00,1.782038868853254854e-01,-6.824520922956600621e-02,2.464490961148914916e-01
1.570897145091904701e+00,-1.180085701647635016e-01,-6.900000000000000577e-02,-4.900857016476349581e-02
1.572850997262417172e+00,-3.955864214768838871e-01,-6.900000000000000577e-02,-3.265864214768838814e-01
1.574804849432929421e+00,-5.540156265972663308e-01,-6.900000000000000577e-02,-4.850156265972663250e-01
1.576758701603441670e+00,-5.354963994173739250e-01,-6.900000000000000577e-02,-4.664963994173739192e-01
1.578712553773954141e+00,-3.472304626185237497e-01,-6.944534610872130087e-02,-2.777851165098024211e-01
1.580666405944466391e+00,-5.839588945385434937e-02,-7.066650371529145658e-02,1.227061426143710721e-02
1.582620258114978640e+00,2.259619909243485991e-01,-7.188766132186159841e-02,2.978496522462101836e-01
1.584574110285491111e+00,4.016552713680873188e-01,-7.310881892843189289e-02,4.747640902965192256e-01
1.586527962456003360e+00,4.064500270761209899e-01,-7.202014078998768276e-02,4.784701678661086865e-01
1.588481814626515609e+00,2.429226001397495893e-01,-6.469319515056676240e-02,3.076157952903163517e-01
1.590435666797028080e+00,-3.283241234741481746e-02,-5.736624951114499549e-02,2.453383716373017803e-02
1.592389518967540329e+00,-3.175381138152639782e-01,-5.003930387172407512e-02,-2.674988099435399169e-01
1.594343371138052579e+00,-5.055534737253345456e-01,-4.361370746969094048e-02,-4.619397662556436468e-01
1.596297223308565050e+00,-5.292666887971323453e-01,-4.141562377786441734e-02,-4.878510650192679488e-01
1.598251075479077299e+00,-3.749970175095516667e-01,-3.921754008603813707e-02,-3.357794774235135504e-01
1.600204927649589548e+00,-9.822479399384313747e-02,-3.701945639421186374e-02,-6.120533759963127374e-02
1.602158779820101797e+00,2.009251967274189032e-01,-3.477317168556898902e-02,2.356983684129878853e-01
1.604112631990614268e+00,4.146301962986344569e-01,-3.198195429912255999e-02,4.466121505977569961e-01
1.606066484161126517e+00,4.653975180697168534e-01,-2.919073691267645015e-02,4.945882549823932828e-01
1.608020336331638767e+00,3.357240219495086775e-01,-2.639951952623033685e-02,3.621235414757389970e-01
1.609974188502151238e+00,7.558950007728393317e-02,-2.195566093077734246e-02,9.754516100806127910e-02
1.611928040672663487e+00,-2.184705299004081613e-01,-1.584987289792656739e-02,-2.026206570024816078e-01
1.613881892843175736e+00,-4.386083898652099466e-01,-9.744084865075794064e-03,-4.288643050001341717e-01
1.615835745013688207e+00,-5.022835251715709326e-01,-3.638296832224326843e-03,-4.986452283393466578e-01
1.617789597184200456e+00,-3.850247319609990670e-01,1.480494720375867632e-03,-3.865052266813749360e-01
1.619743449354712705e+00,-1.282124111973621250e-01,5.143967540086330850e-03,-1.333563787374484610e-01
1.621697301525225177e+00,1.772523670558915077e-01,8.807440359797210835e-03,1.684449266960942881e-01
1.623651153695737426e+00,4.212633197552961839e-01,1.247091317950767449e-02,4.087924065757885250e-01
1.625605005866249675e+00,5.146218713335939388e-01,1.462187133359395264e-02,5.000000000000000000e-01
1.627558858036762146e+00,4.221931203028226331e-01,1.340071372702365989e-02,4.087924065757989611e-01
1.629512710207274395e+00,1.806244828165648464e-01,1.217955612045350591e-02,1.684449266961113301e-01
1.631466562377786644e+00,-1.223979802235476561e-01,1.095839851388335021e-02,-1.333563787374310028e-01
1.633420414548299116e+00,-3.765052266813634363e-01,1.000000000000000021e-02,-3.865052266813634452e-01
1.635374266718811365e+00,-4.886452283393453166e-01,1.000000000000000021e-02,-4.986452283393453255e-01
1.637328118889323614e+00,-4.188643050001288892e-01,1.000000000000000021e-02,-4.288643050001288981e-01
1.639281971059835863e+00,-1.926206570025241482e-01,1.000000000000000021e-02,-2.026206570025241571e-01
1.641235823230348334e+00,1.078820513371125389e-01,1.033689032906903379e-02,9.754516100804350165e-02
1.643189675400860583e+00,3.752516491912416541e-01,1.312810771551514537e-02,3.621235414757265070e-01
1.645143527571372832e+00,5.105075800843519307e-01,1.591932510196125694e-02,4.945882549823906182e-01
1.647097379741885304e+00,4.653226930861600885e-01,1.871054248840768597e-02,4.466121505977523887e-01
1.649051231912397553e+00,2.537273085772833725e-01,1.802894016425442281e-02,2.356983684130289358e-01
1.651005084082909802e+00,-4.683987025504112583e-02,1.436546734454395742e-02,-6.120533759958508152e-02
1.652958936253422273e+00,-3.250774828986670584e-01,1.070199452483307744e-02,-3.357794774235001167e-01
1.654912788423934522e+00,-4.808125433141414162e-01,7.038521705122613784e-03,-4.878510650192640075e-01
1.656866640594446771e+00,-4.574814166271690130e-01,4.458349628470716780e-03,-4.619397662556397055e-01
1.658820492764959242e+00,-2.642616179216788486e-01,3.237192021900423163e-03,-2.674988099435792743e-01
1.660774344935471492e+00,2.654987157901395750e-02,2.016034415330268323e-03,2.453383716368369091e-02
1.662728197105983741e+00,3.084106720990621997e-01,7.948768087601134832e-04,3.076157952903020854e-01
1.664682049276496212e+00,4.763387638770525401e-01,-2.131403989050898937e-03,4.784701678661034130e-01
1.666635901447008461e+00,4.665268982746143545e-01,-8.237192021901672268e-03,4.747640902965160059e-01
1.668589753617520710e+00,2.835066721914951127e-01,-1.434298005475244560e-02,2.978496522462475427e-01
1.670543605788033181e+00,-8.178153826120273390e-03,-2.044876808760391282e-02,1.227061426148363943e-02
1.672497457958545430e+00,-3.027851165097873443e-01,-2.500000000000000139e-02,-2.777851165097873221e-01
1.674451310129057680e+00,-4.914963994173674466e-01,-2.500000000000000139e-02,-4.664963994173674244e-01
1.676405162299569929e+00,-5.100156265972707326e-01,-2.500000000000000139e-02,-4.850156265972707104e-01
1.678359014470082400e+00,-3.515864214768761320e-01,-2.500000000000000139e-02,-3.265864214768761098e-01
1.680312866640594649e+00,-7.494717008659396162e-02,-2.593859992178413482e-02,-4.900857016480981987e-02
1.682266718811106898e+00,2.146489396815548512e-01,-3.180015643332087527e-02,2.464490961148757264e-01
1.684220570981619369e+00,4.143329336168600774e-01,-3.766171294485828880e-02,4.519946465617183384e-01
1.686174423152131618e+00,4.491155517380750473e-01,-4.352326945639502231e-02,4.926388211944700557e-01
1.688128275322643868e+00,3.042785149018839563e-01,-4.927487569137983109e-02,3.535533905932637944e-01
1.690082127493156339e+00,3.201924260913261572e-02,-5.346170177104934279e-02,8.548094438018195851e-02
1.692035979663668588e+00,-2.714260745658405583e-01,-5.764852785071837571e-02,-2.137775467151221687e-01
1.693989831834180837e+00,-4.968788494847382053e-01,-6.183535393038741557e-02,-4.350434955543507898e-01
1.695943684004693308e+00,-5.621821658390315779e-01,-6.458980250293328007e-02,-4.975923633360983533e-01
1.697897536175205557e+00,-4.444153833627378924e-01,-6.581096010950343578e-02,-3.786044232532344567e-01
1.699851388345717806e+00,-1.885222076677384728e-01,-6.703211771607359148e-02,-1.214900899516648952e-01
1.701805240516230278e+00,1.116942429448286866e-01,-6.825327532264388597e-02,1.799475182674725726e-01
1.703759092686742527e+00,3.443626415051956879e-01,-7.137216464607018529e-02,4.157348061512659010e-01
1.705712944857254776e+00,4.223714566691811889e-01,-7.747795267892094995e-02,4.998494093481021250e-01
1.707666797027767247e+00,3.180200250285442065e-01,-8.358374071177242237e-02,4.016037657403166428e-01
1.709620649198279496e+00,6.715134145485684991e-02,-8.968952874462318703e-02,1.568408701994800369e-01
1.711574501368791745e+00,-2.391423386272070739e-01,-9.400000000000000022e-02,-1.451423386272070737e-01
1.713528353539303994e+00,-4.881732138132943710e-01,-9.400000000000000022e-02,-3.941732138132943430e-01
1.715482205709816466e+00,-5.933977281025860639e-01,-9.400000000000000022e-02,-4.993977281025860360e-01
1.717436057880328715e+00,-5.164267826248494231e-01,-9.400000000000000022e-02,-4.224267826248494506e-01
1.719389910050840964e+00,-2.855854099643557742e-01,-9.424369378177555046e-02,-1.913417161825802515e-01
1.721343762221353435e+00,1.408576869006238075e-02,-9.546485138834584494e-02,1.095506200784082257e-01
1.723297614391865684e+00,2.737895536825525333e-01,-9.668600899491600065e-02,3.704755626774685062e-01
1.725251466562377933e+00,3.983326006978681333e-01,-9.790716660148615635e-02,4.962397672993543174e-01
1.727205318732890404e+00,3.422539446497325222e-01,-9.870668752444240746e-02,4.409606321741749158e-01
1.729159170903402654e+00,1.288901946892923589e-01,-9.591547013799629762e-02,2.248056648272886426e-01
1.731113023073914903e+00,-1.664894899792018768e-01,-9.312425275155017390e-02,-7.336523722765170286e-02
1.733066875244427374e+00,-4.351033077336237676e-01,-9.033303536510374487e-02,-3.447702723685200366e-01
1.735020727414939623e+00,-5.800305948359509856e-01,-8.963795463433726907e-02,-4.903926402016137165e-01
1.736974579585451872e+00,-5.479639900926713825e-01,-9.085911224090742477e-02,-4.571048778517640132e-01
1.738928431755964343e+00,-3.491316419440763097e-01,-9.208026984747771926e-02,-2.570513720965986182e-01
1.740882283926476592e+00,-5.651914565424573378e-02,-9.330142745404787497e-02,3.678228179980214119e-02
1.742836136096988842e+00,2.242418122030428174e-01,-9.295482987876393932e-02,3.171966420818067567e-01
1.744789988267501313e+00,3.913755182320939330e-01,-9.051251466562335035e-02,4.818880328977173111e-01
1.746743840438013562e+00,3.827018331390269479e-01,-8.807019945248305282e-02,4.707720325915100146e-01
1.748697692608525811e+00,2.022762114695699776e-01,-8.562788423934274140e-02,2.879040957089127328e-01
1.750651544779038282e+00,-8.522164646066297811e-02,-8.522164646069678440e-02,3.380829840474259413e-14
1.752605396949550531e+00,-3.767892149893112275e-01,-8.888511928040725152e-02,-2.879040957089039621e-01
1.754559249120062780e+00,-5.633206246916240278e-01,-9.254859210011770476e-02,-4.707720325915063508e-01
1.756513101290575030e+00,-5.781000978175483418e-01,-9.621206491982817188e-02,-4.818880328977201977e-01
1.758466953461087501e+00,-4.230842056328556477e-01,-1.058875635510405366e-01,-3.171966420818150834e-01
1.760420805631599750e+00,-1.714891648659657708e-01,-1.347068830660961836e-01,-3.678228179986958030e-02
1.762374657802111999e+00,9.352516951543757284e-02,-1.635262025811518305e-01,2.570513720965894033e-01
1.764328509972624470e+00,2.647593557555488752e-01,-1.923455220962107526e-01,4.571048778517596278e-01
1.766282362143136719e+00,2.789592081663109235e-01,-2.114334320353048746e-01,4.903926402016158259e-01
1.768236214313648968e+00,1.718556402661792770e-01,-1.729146321023485311e-01,3.447702723685278081e-01
1.770190066484161440e+00,-6.103059494166922228e-02,-1.343958321693878022e-01,7.336523722771857992e-02
1.772143918654673689e+00,-3.206826970637104424e-01,-9.587703223643145867e-02,-2.248056648272790115e-01
1.774097770825185938e+00,-4.433911171174444443e-01,-2.430484943274593967e-03,-4.409606321741698642e-01
1.776051622995698409e+00,-3.623890633493855318e-01,1.338507039499701179e-01,-4.962397672993556497e-01
1.778005475166210658e+00,-1.003436698342763944e-01,2.701318928431993838e-01,-3.704755626774757782e-01
1.779959327336722907e+00,2.968624616580098907e-01,4.064130817364285941e-01,-1.095506200784187312e-01
1.781913179507235379e+00,7.414555703084793059e-01,5.501138541259615877e-01,1.913417161825177737e-01
1.783867031677747628e+00,1.124696874529446333e+00,7.022700919046027668e-01,4.224267826248436775e-01
1.785820883848259877e+00,1.353824057785830703e+00,8.544263296832441679e-01,4.993977281025865356e-01
1.787774736018772348e+00,1.400755781275203615e+00,1.006582567461902666e+00,3.941732138133010044e-01
1.789728588189284597e+00,1.270548234207987681e+00,1.125405895580770199e+00,1.451423386272173988e-01
1.791682440359796846e+00,1.031332526359060253e+00,1.188173396558476203e+00,-1.568408701994158383e-01
1.793636292530309095e+00,8.493371317958717803e-01,1.250940897536181984e+00,-4.016037657403102035e-01
1.795590144700821567e+00,8.138589891657932451e-01,1.313708398513895093e+00,-4.998494093481018474e-01
1.797543996871333816e+00,9.153173545839498049e-01,1.331052160735221701e+00,-4.157348061512718962e-01
1.799497849041846065e+00,1.050725487207672337e+00,1.230673005475154902e+00,-1.799475182674826479e-01
1.801451701212358536e+00,1.251783940166676157e+00,1.130293850215076779e+00,1.214900899515993088e-01
1.803405553382870785e+00,1.408519118208237719e+00,1.029914694955010201e+00,3.786044232532274623e-01
1.805359405553383034e+00,1.417873210031425968e+00,9.202808466953286137e-01,4.975923633360972986e-01
1.807313257723895505e+00,1.204633493598910476e+00,7.695899980445544131e-01,4.350434955543561188e-01
1.809267109894407755e+00,8.326766961089293595e-01,6.188991493937974209e-01,2.137775467151319109e-01
1.811220962064920004e+00,3.827273563629249864e-01,4.682083007430403176e-01,-8.548094438011533125e-02
1.813174814235432475e+00,-3.426594436723545689e-02,3.192874462260207324e-01,-3.535533905932561893e-01
1.815128666405944724e+00,-3.042594703927660182e-01,1.883793508017022056e-01,-4.926388211944682238e-01
1.817082518576456973e+00,-3.945233911843392116e-01,5.747125537738373424e-02,-4.519946465617229459e-01
1.819036370746969444e+00,-3.198859361618348052e-01,-7.343684004694966960e-02,-2.464490961148851078e-01
1.820990222917481693e+00,-1.134994470429278313e-01,-1.625080172076703577e-01,4.900857016474252648e-02
1.822944075087993943e+00,1.157205630490194537e-01,-2.108658584278484960e-01,3.265864214768679497e-01
1.824897927258506414e+00,2.257919269492359993e-01,-2.592236996480321021e-01,4.850156265972681013e-01
1.826851779429018663e+00,1.589148585491610977e-01,-3.075815408682102126e-01,4.664963994173713102e-01
1.828805631599530912e+00,-5.670432424108340363e-02,-3.344894407508797185e-01,2.777851165097963149e-01
1.830759483770043161e+00,-3.430965821926421078e-01,-3.308259679311692514e-01,-1.227061426147286853e-02
1.832713335940555632e+00,-6.250121473576515374e-01,-3.271624951114583402e-01,-2.978496522461932527e-01
1.834667188111067881e+00,-7.982631125882604373e-01,-3.234990222917478730e-01,-4.747640902965126197e-01
1.836621040281580131e+00,-7.917847943815534695e-01,-3.133146265154468368e-01,-4.784701678661065771e-01
1.838574892452092602e+00,-5.967515011956656679e-01,-2.891357059053550338e-01,-3.076157952903105786e-01
1.840528744622604851e+00,-2.894906224589604005e-01,-2.649567852952659508e-01,-2.453383716369444967e-02
1.842482596793117100e+00,2.672094525834523004e-02,-2.407778646851769233e-01,2.674988099435221534e-01
1.844436448963629571e+00,2.415218937487924322e-01,-2.204178725068431099e-01,4.619397662556355422e-01
1.846390301134141820e+00,2.745159066305301598e-01,-2.133351583887362068e-01,4.878510650192663389e-01
1.848344153304654069e+00,1.295270331528787788e-01,-2.062524442706293315e-01,3.357794774235081103e-01
1.850298005475166541e+00,-1.379643925529258630e-01,-1.991697301525216235e-01,6.120533759959577436e-02
1.852251857645678790e+00,-4.265395885928661146e-01,-1.908412201798968255e-01,-2.356983684129692891e-01
1.854205709816191039e+00,-6.207060664589676424e-01,-1.740939158612201665e-01,-4.466121505977475037e-01
1.856159561986703510e+00,-6.519348665249338204e-01,-1.573466115425415923e-01,-4.945882549823921726e-01
1.858113414157215759e+00,-5.027228486995989343e-01,-1.405993072238649333e-01,-3.621235414757339455e-01
1.860067266327728008e+00,-2.266763205700400019e-01,-1.291311595619859254e-01,-9.754516100805406265e-02
1.862021118498240480e+00,8.057221155858412809e-02,-1.220484454438782174e-01,2.026206570024623455e-01
1.863974970668752729e+00,3.138985736743520327e-01,-1.149657313257713281e-01,4.288643050001233470e-01
1.865928822839264978e+00,3.907622111316816915e-01,-1.078830172076644250e-01,4.986452283393461027e-01
1.867882675009777227e+00,2.830568985624810630e-01,-1.034483281188892240e-01,3.865052266813702730e-01
1.869836527180289698e+00,3.112920822512245389e-02,-1.022271705123189295e-01,1.333563787374413834e-01
1.871790379350801947e+00,-2.694509396018232028e-01,-1.010060129057487877e-01,-1.684449266960744429e-01
1.873744231521314196e+00,-5.085772618749550000e-01,-9.978485529917863195e-02,-4.087924065757763681e-01
1.875698083691826668e+00,-5.976910930778249753e-01,-9.769109307782500307e-02,-5.000000000000000000e-01
1.877651935862338917e+00,-5.028200268339092505e-01,-9.402762025811453594e-02,-4.087924065757947423e-01
1.879605788032851166e+00,-2.588090741345084878e-01,-9.036414743840408270e-02,-1.684449266961044189e-01
1.881559640203363637e+00,4.665570411877227597e-02,-8.670067461869319925e-02,1.333563787374654752e-01
1.883513492373875886e+00,3.031470921486948966e-01,-8.335813453265515649e-02,3.865052266813500670e-01
1.885467344544388135e+00,4.177294090198289123e-01,-8.091581931951484508e-02,4.986452283393437712e-01
1.887421196714900606e+00,3.503908008937654528e-01,-7.847350410637425611e-02,4.288643050001397228e-01
1.889375048885412856e+00,1.265894681092575302e-01,-7.603118889323394469e-02,2.026206570024914611e-01
1.891328901055925105e+00,-1.708403730310962265e-01,-7.329521202301765570e-02,-9.754516100807858470e-02
1.893282753226437576e+00,-4.312319274190599683e-01,-6.910838594334800522e-02,-3.621235414757119631e-01
1.895236605396949825e+00,-5.595098148460663223e-01,-6.492155986367884046e-02,-4.945882549823875096e-01
1.897190457567462074e+00,-5.073468843817714458e-01,-6.073473378400966877e-02,-4.466121505977618256e-01
1.899144309737974545e+00,-2.946983684129973469e-01,-5.899999999999999689e-02,-2.356983684129973777e-01
1.901098161908486794e+00,2.205337599620590949e-03,-5.899999999999999689e-02,6.120533759962058784e-02
1.903052014078999044e+00,2.767794774234845212e-01,-5.899999999999999689e-02,3.357794774234845181e-01
1.905005866249511293e+00,4.288510650192593476e-01,-5.899999999999999689e-02,4.878510650192593445e-01
1.906959718420023764e+00,4.064187455282342043e-01,-5.552102072741355032e-02,4.619397662556477546e-01
1.908913570590536013e+00,2.190605033342423735e-01,-4.843830660930666110e-02,2.674988099435490208e-01
1.910867422761048262e+00,-6.588942965491917381e-02,-4.135559249119975800e-02,-2.453383716371941928e-02
1.912821274931560733e+00,-3.418886736633774959e-01,-3.427287837309206386e-02,-3.076157952902854320e-01
1.914775127102072982e+00,-5.060478956721190524e-01,-2.757772780602169363e-02,-4.784701678660973068e-01
1.916728979272585232e+00,-4.962360300696935234e-01,-2.147193977317091856e-02,-4.747640902965226117e-01
1.918682831443097703e+00,-3.132158039865382548e-01,-1.536615174031945308e-02,-2.978496522462187879e-01
1.920636683613609952e+00,-2.153097796891655785e-02,-9.260363707468681482e-03,-1.227061426144787637e-02
1.922590535784122201e+00,2.735232862399226694e-01,-4.261830269847163150e-03,2.777851165097698360e-01
1.924544387954634672e+00,4.646768843606532418e-01,-1.819515056706576348e-03,4.664963994173598194e-01
1.926498240125146921e+00,4.856384267537095512e-01,6.228001564337328974e-04,4.850156265972758174e-01
1.928452092295659170e+00,3.296515368464660867e-01,3.065115369574042577e-03,3.265864214768920415e-01
1.930405944466171642e+00,5.476971603884615847e-02,5.761145874071943798e-03,4.900857016477421640e-02
1.932359796636683891e+00,-2.370244774210749916e-01,9.424618693782407450e-03,-2.464490961148574077e-01
1.934313648807196140e+00,-4.389065550482164624e-01,1.308809151349287284e-02,-4.519946465617093456e-01
1.936267500977708611e+00,-4.758872568612699250e-01,1.675156433320375282e-02,-4.926388211944736639e-01
1.938221353148220860e+00,-3.326363561220777587e-01,2.091703447120091958e-02,-3.535533905932786713e-01
1.940175205318733109e+00,-5.646937948825232062e-02,2.901156489189438831e-02,-8.548094438014670893e-02
1.942129057489245580e+00,2.508836420277432699e-01,3.710609531258877991e-02,2.137775467151545039e-01
1.944082909659757830e+00,4.802441212876226717e-01,4.520062573328224864e-02,4.350434955543404092e-01
1.946036761830270079e+00,5.498322440556941970e-01,5.223988071959380364e-02,4.975923633361004073e-01
1.947990614000782328e+00,4.369500920056927917e-01,5.834566875244456829e-02,3.786044232532482234e-01
1.949944466171294799e+00,1.859415467369262553e-01,6.445145678529604072e-02,1.214900899516302007e-01
1.951898318341807048e+00,-1.093902734493591572e-01,7.055724481814680538e-02,-1.799475182675059626e-01
1.953852170512319297e+00,-3.406695930108551429e-01,7.506521314039903137e-02,-4.157348061512541881e-01
1.955806022682831768e+00,-4.223418809945630459e-01,7.750752835353962034e-02,-4.998494093481026801e-01
1.957759874853344018e+00,-3.216539221736492427e-01,7.994984356667993175e-02,-4.016037657403291883e-01
1.959713727023856267e+00,-7.444871141962582095e-02,8.239215877982024316e-02,-1.568408701994460641e-01
1.961667579194368738e+00,2.344829721821906077e-01,8.934063355494929748e-02,1.451423386272413241e-01
1.963621431364880987e+00,4.991446647323286578e-01,1.049714509190472628e-01,3.941732138132814089e-01
1.965575283535393236e+00,6.199999963857302232e-01,1.206022682831452419e-01,4.993977281025849813e-01
1.967529135705905707e+00,5.586598682721057862e-01,1.362330856472450114e-01,4.224267826248607194e-01
1.969482987876417956e+00,3.405491858735918420e-01,1.492074696910446752e-01,1.913417161825471946e-01
1.971436840046930206e+00,4.454148003888216967e-02,1.540921001173252980e-01,-1.095506200784431283e-01
1.973390692217442677e+00,-2.114988321338478749e-01,1.589767305436064759e-01,-3.704755626774543509e-01
1.975344544387954926e+00,-3.323784063294646929e-01,1.638613609698870988e-01,-4.962397672993517639e-01
1.977298396558467175e+00,-2.716817897807544679e-01,1.692788423934303843e-01,-4.409606321741848522e-01
1.979252248728979646e+00,-4.715317027453777565e-02,1.776524945527696853e-01,-2.248056648273074609e-01
1.981206100899491895e+00,2.593913839397951060e-01,1.860261467121080148e-01,7.336523722768707734e-02
1.983159953070004144e+00,5.391700712399510875e-01,1.943997988714463443e-01,3.447702723685047710e-01
1.985113805240516394e+00,6.924301841984815686e-01,2.020375439968719877e-01,4.903926402016096087e-01
1.987067657411028865e+00,6.662251359667521466e-01,2.091202581149796957e-01,4.571048778517725064e-01
1.989021509581541114e+00,4.732543443297032582e-01,2.162029722330865711e-01,2.570513720966167148e-01
1.990975361752053363e+00,1.865034045513556671e-01,2.232856863511934742e-01,-3.678228179983782098e-02
1.992929213922565834e+00,-8.729284857381613971e-02,2.299037935080182615e-01,-3.171966420818344012e-01
1.994883066093078083e+00,-2.458784513568426644e-01,2.360095815408690401e-01,-4.818880328977117045e-01
1.996836918263590333e+00,-2.286566630177973292e-01,2.421153695737197908e-01,-4.707720325915171200e-01
1.998790770434102804e+00,-3.968293810235873353e-02,2.482211576065712633e-01,-2.879040957089299968e-01
2.000744622604615053e+00,2.543269456394239847e-01,2.543269456394220418e-01,1.964386723728471942e-15
2.002698474775127302e+00,5.483368293812060923e-01,2.604327336722728203e-01,2.879040957089332164e-01
2.004652326945639551e+00,7.373105542966228443e-01,2.665385217051235989e-01,4.707720325914992454e-01
2.006606179116151800e+00,7.545323426357002372e-01,2.726443097379743774e-01,4.818880328977258043e-01
2.008560031286664493e+00,5.945466616359966761e-01,2.773500195541653279e-01,3.171966420818313481e-01
2.010513883457176743e+00,3.153534589605693772e-01,2.785711771607354836e-01,3.678228179983390050e-02
2.012467735627688992e+00,2.274096267068548283e-02,2.797923347673055838e-01,-2.570513720966201010e-01
2.014421587798201241e+00,-1.760913854778753396e-01,2.810134923738757395e-01,-4.571048778517510791e-01
2.016375439968713490e+00,-2.065690746392974120e-01,2.838235655623225218e-01,-4.903926402016199337e-01
2.018329292139225739e+00,-5.145656769230405603e-02,2.933137046762390177e-01,-3.447702723685430737e-01
2.020283144309738432e+00,2.294386065624745008e-01,3.028038437901576785e-01,-7.336523722768319156e-02
2.022236996480250681e+00,5.370996477313851880e-01,3.122939829040741744e-01,2.248056648273109859e-01
2.024190848650762931e+00,7.577049125808866803e-01,3.167442804067267526e-01,4.409606321741599277e-01
2.026144700821275180e+00,8.142052053126551669e-01,3.179654380132969083e-01,4.962397672993582032e-01
2.028098552991787429e+00,6.896621582973569975e-01,3.191865956198670640e-01,3.704755626774899335e-01
2.030052405162299678e+00,4.299583733048765177e-01,3.204077532264372197e-01,1.095506200784392842e-01
2.032006257332812371e+00,1.290293729844415316e-01,3.203710891669923622e-01,-1.913417161825508306e-01
2.033960109503324620e+00,-1.032768510644102022e-01,3.191499315604222065e-01,-4.224267826248324087e-01
2.035913961673836869e+00,-1.814689541487355395e-01,3.179287739538520507e-01,-4.993977281025875903e-01
2.037867813844349119e+00,-7.746559746603204344e-02,3.167076163472818950e-01,-3.941732138133139385e-01
2.039821666014861368e+00,1.693170375948976625e-01,3.144593762221352118e-01,-1.451423386272375493e-01
2.041775518185373617e+00,4.676367736018745558e-01,3.107959034024247447e-01,1.568408701994498111e-01
2.043729370355885866e+00,7.087361963230458528e-01,3.071324305827142775e-01,4.016037657403315198e-01
2.045683222526398559e+00,8.033183671111043811e-01,3.034689577630029778e-01,4.998494093481013478e-01
2.047637074696910808e+00,7.144254103749825280e-01,2.986906042236988634e-01,4.157348061512836090e-01
2.049590926867423057e+00,4.715554083730942869e-01,2.916078901055919603e-01,1.799475182675022988e-01
2.051544779037935307e+00,1.630350860358510956e-01,2.845251759874851127e-01,-1.214900899516340033e-01
2.053498631208447556e+00,-1.011619613838725673e-01,2.774424618693782096e-01,-3.786044232532507769e-01
2.055452483378959805e+00,-2.284203844545930062e-01,2.691719788815022385e-01,-4.975923633360952447e-01
2.057406335549472498e+00,-1.780830927385685936e-01,2.569604028157979059e-01,-4.350434955543664994e-01
2.059360187719984747e+00,3.097128003494539761e-02,2.447488267500963488e-01,-2.137775467151509512e-01
2.061314039890496996e+00,3.180181950645454281e-01,2.325372506843948195e-01,8.548094438015058083e-02
2.063267892061009245e+00,5.742522005826659059e-01,2.206988099893844313e-01,3.535533905932814469e-01
2.065221744231521495e+00,7.038474920699319126e-01,2.112086708754673248e-01,4.926388211944646156e-01
2.067175596402033744e+00,6.537131783232821292e-01,2.017185317615502460e-01,4.519946465617319387e-01
2.069129448572546437e+00,4.386774887625344288e-01,1.922283926476310301e-01,2.464490961149034265e-01
2.071083300743058686e+00,1.342519890843394403e-01,1.832605592491175495e-01,-4.900857016477812300e-02
2.073037152913570935e+00,-1.518739654737685241e-01,1.747124560031264595e-01,-3.265864214768949836e-01
2.074991005084083184e+00,-3.188512738401275692e-01,1.661643527571353973e-01,-4.850156265972629943e-01
2.076944857254595433e+00,-3.088801499062345801e-01,1.576162495111443074e-01,-4.664963994173788597e-01
2.078898709425107683e+00,-1.314130985199840895e-01,1.463720179898297113e-01,-2.777851165098138009e-01
2.080852561595619932e+00,1.442329724937537194e-01,1.319623582323019018e-01,1.227061426145180378e-02
2.082806413766132625e+00,4.154023507209927413e-01,1.175526984747707893e-01,2.978496522462219520e-01
2.084760265936644874e+00,5.779071290137489658e-01,1.031430387172429797e-01,4.747640902965060139e-01
2.086714118107157123e+00,5.697922249642729531e-01,9.132205709816024197e-02,4.784701678661126834e-01
2.088667970277669372e+00,3.916109067490665119e-01,8.399511145873932161e-02,3.076157952903271764e-01
2.090621822448181621e+00,1.012020029830338896e-01,7.666816581931838737e-02,2.453383716371549533e-02
2.092575674618693871e+00,-1.981575897636548844e-01,6.934122017989746700e-02,-2.674988099435523514e-01
2.094529526789206564e+00,-4.008521635962861152e-01,6.108760265936313827e-02,-4.619397662556492534e-01
2.096483378959718813e+00,-4.375096492977251783e-01,5.034141572154578192e-02,-4.878510650192709464e-01
2.098437231130231062e+00,-2.961842486397953111e-01,3.959522878372842558e-02,-3.357794774235237090e-01
2.100391083300743311e+00,-3.235629575370562588e-02,2.884904184591106230e-02,-6.120533759961668818e-02
2.102344935471255560e+00,2.544664560156590927e-01,1.876808760265826631e-02,2.356983684130008472e-01
2.104298787641767809e+00,4.584021947343068226e-01,1.179004413654320509e-02,4.466121505977636019e-01
2.106252639812280503e+00,4.994002556528218673e-01,4.812000670426561794e-03,4.945882549823952812e-01
2.108206491982792752e+00,3.599574986800599397e-01,-2.166042795688497696e-03,3.621235414757484339e-01
2.110160344153305001e+00,8.819387043318091535e-02,-9.351290574893804386e-03,9.754516100807472667e-02
2.112114196323817250e+00,-2.192988932168097871e-01,-1.667823621431473169e-02,-2.026206570024950415e-01
2.114068048494329499e+00,-4.528694868538774010e-01,-2.400518185373565899e-02,-4.288643050001417212e-01
2.116021900664841748e+00,-5.299773558325042710e-01,-3.133212749315658630e-02,-4.986452283393476570e-01
2.117975752835353997e+00,-4.232127941432531903e-01,-3.670756746186951136e-02,-3.865052266813836512e-01
2.119929605005866691e+00,-1.734831874977283972e-01,-4.012680876026671756e-02,-1.333563787374616727e-01
2.121883457176378940e+00,1.248988766374449499e-01,-4.354605005866315354e-02,1.684449266961081104e-01
2.123837309346891189e+00,3.618271152187373940e-01,-4.696529135705958258e-02,4.087924065757969627e-01
2.125791161517403438e+00,4.505055240516228632e-01,-4.949447594837715070e-02,5.000000000000000000e-01
2.127745013687915687e+00,3.580767730208595512e-01,-5.071563355494730641e-02,4.087924065758068437e-01
2.129698865858427936e+00,1.165081355346068159e-01,-5.193679116151745517e-02,1.684449266961242642e-01
2.131652718028940630e+00,-1.865143275055330396e-01,-5.315794876808788844e-02,-1.333563787374451581e-01
2.133606570199452879e+00,-4.416425458053468978e-01,-5.513731912397413365e-02,-3.865052266813727710e-01
2.135560422369965128e+00,-5.574460202830268107e-01,-5.880079194368460077e-02,-4.986452283393422169e-01
2.137514274540477377e+00,-4.913285697635456084e-01,-6.246426476339506095e-02,-4.288643050001505475e-01
2.139468126710989626e+00,-2.687483945856162793e-01,-6.612773758310552807e-02,-2.026206570025107234e-01
2.141421978881501875e+00,2.884657449484495650e-02,-6.869858651321296417e-02,9.754516100805792067e-02
2.143375831052014568e+00,2.948205636557469922e-01,-6.730297781998963169e-02,3.621235414757366100e-01
2.145329683222526818e+00,4.286808858556178103e-01,-6.590736912676661841e-02,4.945882549823844010e-01
2.147283535393039067e+00,3.821003901642276990e-01,-6.451176043354360512e-02,4.466121505977713180e-01
2.149237387563551316e+00,1.701516339585769921e-01,-6.554673445443898183e-02,2.356983684130159740e-01
2.151191239734063565e+00,-1.291943872671789673e-01,-6.798904966757929325e-02,-6.120533759959967401e-02
2.153145091904575814e+00,-4.062108423042306016e-01,-7.043136488071959078e-02,-3.357794774235109969e-01
2.155098944075088063e+00,-5.607247451131270877e-01,-7.287368009385990220e-02,-4.878510650192672271e-01
2.157052796245600756e+00,-5.359397662556557584e-01,-7.399999999999999634e-02,-4.619397662556558037e-01
2.159006648416113006e+00,-3.414988099435668500e-01,-7.399999999999999634e-02,-2.674988099435668398e-01
2.160960500586625255e+00,-4.946616283630161925e-02,-7.399999999999999634e-02,2.453383716369837361e-02
2.162914352757137504e+00,2.336157952903136215e-01,-7.399999999999999634e-02,3.076157952903136317e-01
2.164868204927649753e+00,4.028422836267646634e-01,-7.562788423934301008e-02,4.784701678661076873e-01
2.166822057098162002e+00,3.954727332374757265e-01,-7.929135705905347720e-02,4.747640902965292176e-01
2.168775909268674695e+00,2.148948223674709557e-01,-8.295482987876476311e-02,2.978496522462357188e-01
2.170729761439186944e+00,-7.434768843700628738e-02,-8.661830269847523023e-02,1.227061426146894112e-02
2.172683613609699194e+00,-3.650760824855519004e-01,-8.729096597575239369e-02,-2.777851165097995345e-01
2.174637465780211443e+00,-5.489027349668444966e-01,-8.240633554947178474e-02,-4.664963994173726980e-01
2.176591317950723692e+00,-5.625373317204720447e-01,-7.752170512319116191e-02,-4.850156265972809244e-01
2.178545170121235941e+00,-3.992234961738185262e-01,-7.263707469691055296e-02,-3.265864214769079732e-01
2.180499022291748634e+00,-1.173847923001095916e-01,-6.837622213531441284e-02,-4.900857016479518574e-02
2.182452874462260883e+00,1.805151891927144203e-01,-6.593390692217410143e-02,2.464490961148885217e-01
2.184406726632773132e+00,3.885030548526908212e-01,-6.349159170903379001e-02,4.519946465617246112e-01
2.186360578803285382e+00,4.315895446985837935e-01,-6.104927649589347860e-02,4.926388211944772721e-01
2.188314430973797631e+00,2.938796099351561608e-01,-5.967378065813744997e-02,3.535533905932936038e-01
2.190268283144309880e+00,2.162033764236072353e-02,-6.386060673780674657e-02,8.548094438016747010e-02
2.192222135314822573e+00,-2.818249795326124851e-01,-6.804743281747700767e-02,-2.137775467151354636e-01
2.194175987485334822e+00,-5.072777544515043591e-01,-7.223425889714629733e-02,-4.350434955543580617e-01
2.196129839655847071e+00,-5.708862135511979519e-01,-7.329385021509547682e-02,-4.975923633361024612e-01
2.198083691826359320e+00,-4.506771158617873252e-01,-7.207269260852532111e-02,-3.786044232532619902e-01
2.200037543996871570e+00,-1.923416249536057943e-01,-7.085153500195517928e-02,-1.214900899516506289e-01
2.201991396167383819e+00,1.103171408721012881e-01,-6.963037739538502358e-02,1.799475182674863116e-01
2.203945248337896068e+00,3.467348061512740554e-01,-6.900000000000000577e-02,4.157348061512740611e-01
2.205899100508408761e+00,4.308494093481017861e-01,-6.900000000000000577e-02,4.998494093481017919e-01
2.207852952678921010e+00,3.326037657403417280e-01,-6.900000000000000577e-02,4.016037657403417338e-01
2.209806804849433259e+00,8.784087019946607011e-02,-6.900000000000000577e-02,1.568408701994660759e-01
2.211760657019945508e+00,-2.131915173522890838e-01,-6.804917872506793808e-02,-1.451423386272211458e-01
2.213714509190457758e+00,-4.597800773252310180e-01,-6.560686351192762666e-02,-3.941732138133033914e-01
2.215668361360970007e+00,-5.625622764013740174e-01,-6.316454829878731525e-02,-4.993977281025867576e-01
2.217622213531482700e+00,-4.831490157105184369e-01,-6.072223308564644872e-02,-4.224267826248719881e-01
2.219576065701994949e+00,-2.514218393738074653e-01,-6.008012319124078626e-02,-1.913417161825666790e-01
2.221529917872507198e+00,4.580702406747130806e-02,-6.374359601095125338e-02,1.095506200784225614e-01
2.223483770043019447e+00,3.030684938468166667e-01,-6.740706883066170663e-02,3.704755626774783872e-01
2.225437622213531697e+00,4.251692256489839616e-01,-7.107054165037217375e-02,4.962397672993561493e-01
2.227391474384043946e+00,3.672402567342262780e-01,-7.372037543996852460e-02,4.409606321741947887e-01
2.229345326554556639e+00,1.524808980805810732e-01,-7.232476674674519213e-02,2.248056648273262792e-01
2.231299178725068888e+00,-1.442943952811884256e-01,-7.092915805352217884e-02,-7.336523722766624678e-02
2.233253030895581137e+00,-4.143038217288298464e-01,-6.953354936029917943e-02,-3.447702723685306947e-01
2.235206883066093386e+00,-5.563754325363831077e-01,-6.598279233476650463e-02,-4.903926402016166031e-01
2.237160735236605635e+00,-5.182030397602669369e-01,-6.109816190848588874e-02,-4.571048778517810551e-01
2.239114587407117885e+00,-3.132649035788400704e-01,-5.621353148220526591e-02,-2.570513720966348115e-01
2.241068439577630134e+00,-1.454661925610784001e-02,-5.132890105592465002e-02,3.678228179981681001e-02
2.243022291748142827e+00,2.669187773966395505e-01,-5.027786468517854435e-02,3.171966420818180810e-01
2.244976143918655076e+00,4.291678529994024105e-01,-5.272017989831884882e-02,4.818880328977212524e-01
2.246929996089167325e+00,4.156095374800650166e-01,-5.516249511145916024e-02,4.707720325915241699e-01
2.248883848259679574e+00,2.302992853843477405e-01,-5.760481032459946471e-02,2.879040957089472053e-01
2.250837700430191823e+00,-5.847643723111099756e-02,-5.847643723113010727e-02,1.910634700860847449e-14
2.252791552600704073e+00,-3.451593753334759040e-01,-5.725527962455995157e-02,-2.879040957089159525e-01
2.254745404771216766e+00,-5.268061546095008651e-01,-5.603412201798952524e-02,-4.707720325915113468e-01
2.256699256941729015e+00,-5.367009973091356745e-01,-5.481296441141936954e-02,-4.818880328977162564e-01
2.258653109112241264e+00,-3.703802556915460897e-01,-5.318361360969842827e-02,-3.171966420818476684e-01
2.260606961282753513e+00,-8.752358019641304221e-02,-5.074129839655811686e-02,-3.678228179985491841e-02
2.262560813453265762e+00,2.087523889131842059e-01,-4.829898318341781238e-02,2.570513720966020044e-01
2.264514665623778011e+00,4.112482098814880804e-01,-4.585666797027750097e-02,4.571048778517655675e-01
2.266468517794290705e+00,4.457233290669120329e-01,-4.466931113470097581e-02,4.903926402016129948e-01
2.268422369964802954e+00,2.973097438474113230e-01,-4.746052852114699544e-02,3.447702723685583392e-01
2.270376222135315203e+00,2.311349132011101398e-02,-5.025174590759302201e-02,7.336523722770403599e-02
2.272330074305827452e+00,-2.778486281213312092e-01,-5.304296329403904164e-02,-2.248056648272921676e-01
2.274283926476339701e+00,-4.949606321741767956e-01,-5.399999999999999939e-02,-4.409606321741768031e-01
2.276237778646851950e+00,-5.502397672993538658e-01,-5.399999999999999939e-02,-4.962397672993538733e-01
2.278191630817364199e+00,-4.244755626775040258e-01,-5.399999999999999939e-02,-3.704755626775040334e-01
2.280145482987876893e+00,-1.635506200784598574e-01,-5.399999999999999939e-02,-1.095506200784598511e-01
2.282099335158389142e+00,1.387158851305176355e-01,-5.262583105201374539e-02,1.913417161825313739e-01
2.284053187328901391e+00,3.722432667859781330e-01,-5.018351583887343398e-02,4.224267826248515600e-01
2.286007039499413640e+00,4.516565274768526983e-01,-4.774120062573312950e-02,4.993977281025858139e-01
2.287960891669925889e+00,3.488743284007341239e-01,-4.529888541259281809e-02,3.941732138133269281e-01
2.289914743840438138e+00,1.021714254477504719e-01,-4.297091317950725575e-02,1.451423386272577276e-01
2.291868596010950831e+00,-1.976136996871102891e-01,-4.077282948768048282e-02,-1.568408701994297993e-01
2.293822448181463081e+00,-4.401785115361731560e-01,-3.857474579585420255e-02,-4.016037657403189742e-01
2.295776300351975330e+00,-5.362260714521301930e-01,-3.637666210402792921e-02,-4.998494093481022360e-01
2.297730152522487579e+00,-4.520125730656483487e-01,-3.627776691435299905e-02,-4.157348061512953219e-01
2.299684004692999828e+00,-2.196445264802713848e-01,-3.969700821274942809e-02,-1.799475182675219498e-01
2.301637856863512077e+00,7.837384044046769027e-02,-4.311624951114586407e-02,1.214900899516135613e-01
